time;temperature;pressure;kinetic_energy;potential_energy;total_energy;virial;msd;diffusion;volume
0.005;0.099994995;-2.8642936;205.71286;-7985.0117;-7779.299;-16207.424;0.0;0.0;1838.2656
0.01;0.09995267;-2.8633368;205.5483;-7984.7754;-7779.227;-16201.817;0.0;0.0;1838.2656
0.015;0.09991001;-2.861705;205.38168;-7984.3857;-7779.004;-16192.485;0.0;0.0;1838.2656
0.02;0.099866696;-2.8591948;205.21466;-7983.479;-7778.264;-16178.308;0.0;0.0;1838.2656
0.025;0.09982382;-2.8555024;205.05124;-7981.502;-7776.4507;-16157.618;0.0;0.0;1838.2656
0.03;0.09978224;-2.8506196;204.89044;-7978.427;-7773.536;-16130.369;0.0;0.0;1838.2656
0.035;0.09974067;-2.8444521;204.72887;-7974.089;-7769.36;-16096.034;0.0;0.0;1838.2656
0.04;0.09969867;-2.8373473;204.56128;-7969.1694;-7764.6084;-16056.517;0.0;0.0;1838.2656
0.045;0.09965419;-2.8295898;204.38086;-7964.167;-7759.786;-16013.375;0.0;0.0;1838.2656
0.05;0.09960596;-2.8211792;204.18507;-7959.0815;-7754.8965;-15966.6;0.0;0.0;1838.2656
0.055;0.09955397;-2.8122742;203.97244;-7954.251;-7750.2783;-15917.065;0.0;0.0;1838.2656
0.06;0.09949758;-2.802922;203.7414;-7949.738;-7745.9966;-15865.027;0.0;0.0;1838.2656
0.065;0.09943662;-2.7926583;203.49376;-7944.7;-7741.2065;-15807.931;0.0;0.0;1838.2656
0.07;0.09937217;-2.781788;203.22975;-7939.753;-7736.523;-15747.455;0.0;0.0;1838.2656
0.075;0.0993033;-2.7702906;202.9477;-7934.8125;-7731.8647;-15683.485;0.0;0.0;1838.2656
0.08;0.09923007;-2.7580206;202.6483;-7929.661;-7727.0127;-15615.221;0.0;0.0;1838.2656
0.085;0.09915281;-2.745279;202.33156;-7924.8325;-7722.501;-15544.319;0.0;0.0;1838.2656
0.09;0.09907121;-2.7316332;201.9989;-7919.5684;-7717.5693;-15468.4;0.0;0.0;1838.2656
0.095;0.0989863;-2.717306;201.65253;-7914.2295;-7712.577;-15388.695;0.0;0.0;1838.2656
0.1;0.09889817;-2.702039;201.29485;-7908.3584;-7707.0635;-15303.786;0.0;0.0;1838.2656
0.105;0.09880791;-2.6862042;200.92899;-7902.5986;-7701.6694;-15215.729;0.0;0.0;1838.2656
0.11;0.09871599;-2.6695528;200.55858;-7896.498;-7695.9395;-15123.159;0.0;0.0;1838.2656
0.115;0.09862379;-2.6522915;200.18866;-7890.413;-7690.2246;-15027.226;0.0;0.0;1838.2656
0.12;0.09853245;-2.6341028;199.82591;-7883.687;-7683.8613;-14926.194;0.0;0.0;1838.2656
0.125;0.098444074;-2.6153152;199.4771;-7876.8623;-7677.3853;-14821.886;0.0;0.0;1838.2656
0.13;0.09835998;-2.5958967;199.14957;-7869.8105;-7670.661;-14714.142;0.0;0.0;1838.2656
0.135;0.09828244;-2.5758007;198.85149;-7862.396;-7663.5444;-14602.721;0.0;0.0;1838.2656
0.14;0.09821323;-2.5551503;198.59082;-7854.713;-7656.122;-14488.317;0.0;0.0;1838.2656
0.145;0.09815448;-2.5342808;198.37546;-7847.2314;-7648.856;-14372.794;0.0;0.0;1838.2656
0.15;0.09810788;-2.5129874;198.21178;-7839.5215;-7641.3096;-14255.039;0.0;0.0;1838.2656
0.155;0.098074846;-2.4914486;198.10619;-7831.713;-7633.607;-14136.046;0.0;0.0;1838.2656
0.16;0.098057084;-2.4697921;198.0645;-7823.88;-7625.8154;-14016.53;0.0;0.0;1838.2656
0.165;0.09805559;-2.4480453;198.09036;-7815.9097;-7617.8193;-13896.652;0.0;0.0;1838.2656
0.17;0.098071106;-2.426551;198.18567;-7808.2866;-7610.101;-13778.309;0.0;0.0;1838.2656
0.175;0.09810371;-2.4053028;198.35007;-7800.779;-7602.4287;-13661.457;0.0;0.0;1838.2656
0.18;0.09815295;-2.3844671;198.58173;-7793.5737;-7594.992;-13547.016;0.0;0.0;1838.2656
0.185;0.09821829;-2.3641622;198.8778;-7786.682;-7587.804;-13435.63;0.0;0.0;1838.2656
0.19;0.09829869;-2.3445678;199.23308;-7780.249;-7581.016;-13328.28;0.0;0.0;1838.2656
0.195;0.098392405;-2.3257484;199.6391;-7774.307;-7574.668;-13225.309;0.0;0.0;1838.2656
0.2;0.09849692;-2.3077164;200.08698;-7768.6943;-7568.6074;-13126.761;0.0;0.0;1838.2656
0.205;0.09861028;-2.2907631;200.56757;-7763.8096;-7563.242;-13034.229;0.0;0.0;1838.2656
0.21;0.09872985;-2.274775;201.0693;-7759.381;-7558.3115;-12947.061;0.0;0.0;1838.2656
0.215;0.09885256;-2.2597022;201.58063;-7755.258;-7553.6772;-12864.96;0.0;0.0;1838.2656
0.22;0.0989758;-2.245747;202.09045;-7751.739;-7549.6484;-12789.02;0.0;0.0;1838.2656
0.225;0.099096835;-2.2329285;202.58957;-7748.829;-7546.2397;-12719.326;0.0;0.0;1838.2656
0.23;0.09921395;-2.2212086;203.06845;-7746.4946;-7543.4263;-12655.65;0.0;0.0;1838.2656
0.235;0.09932434;-2.210576;203.51802;-7744.664;-7541.146;-12597.913;0.0;0.0;1838.2656
0.24;0.09942652;-2.2009263;203.93307;-7743.281;-7539.3477;-12545.527;0.0;0.0;1838.2656
0.245;0.099519506;-2.1921515;204.30882;-7742.198;-7537.8896;-12497.889;0.0;0.0;1838.2656
0.25;0.09960221;-2.1841729;204.64264;-7741.3257;-7536.683;-12454.556;0.0;0.0;1838.2656
0.255;0.099674486;-2.1771421;204.93433;-7740.9814;-7536.047;-12416.365;0.0;0.0;1838.2656
0.26;0.09973649;-2.1705756;205.18369;-7740.447;-7535.263;-12380.65;0.0;0.0;1838.2656
0.265;0.09978816;-2.1648977;205.38972;-7740.562;-7535.1724;-12349.751;0.0;0.0;1838.2656
0.27;0.09982906;-2.1597972;205.55444;-7740.865;-7535.3105;-12321.951;0.0;0.0;1838.2656
0.275;0.09986073;-2.1552348;205.68095;-7741.321;-7535.6396;-12297.044;0.0;0.0;1838.2656
0.28;0.09988316;-2.1510646;205.77042;-7741.8867;-7536.116;-12274.226;0.0;0.0;1838.2656
0.285;0.09989701;-2.147356;205.82773;-7742.7256;-7536.898;-12253.888;0.0;0.0;1838.2656
0.29;0.09990396;-2.1438985;205.85498;-7743.479;-7537.624;-12234.874;0.0;0.0;1838.2656
0.295;0.09990343;-2.1405895;205.85306;-7744.1494;-7538.2964;-12216.622;0.0;0.0;1838.2656
0.3;0.099896476;-2.1373954;205.82677;-7744.698;-7538.8716;-12198.954;0.0;0.0;1838.2656
0.305;0.09988432;-2.1344376;205.77963;-7745.4033;-7539.6235;-12182.549;0.0;0.0;1838.2656
0.31;0.099867515;-2.131477;205.71545;-7745.9707;-7540.2554;-12166.094;0.0;0.0;1838.2656
0.315;0.09984733;-2.128471;205.6373;-7746.3135;-7540.6763;-12149.359;0.0;0.0;1838.2656
0.32;0.099824004;-2.125595;205.54932;-7746.7563;-7541.207;-12133.323;0.0;0.0;1838.2656
0.325;0.09979931;-2.122713;205.45601;-7747.163;-7541.707;-12117.243;0.0;0.0;1838.2656
0.33;0.09977367;-2.1196969;205.3606;-7747.3184;-7541.958;-12100.419;0.0;0.0;1838.2656
0.335;0.099748194;-2.1166954;205.2673;-7747.575;-7542.308;-12083.68;0.0;0.0;1838.2656
0.34;0.09972382;-2.113617;205.1787;-7747.638;-7542.4595;-12066.526;0.0;0.0;1838.2656
0.345;0.09970082;-2.1104782;205.09741;-7747.656;-7542.5586;-12049.053;0.0;0.0;1838.2656
0.35;0.09968023;-2.1071768;205.02603;-7747.3955;-7542.3696;-12030.704;0.0;0.0;1838.2656
0.355;0.09966212;-2.1039972;204.96681;-7747.379;-7542.412;-12013.051;0.0;0.0;1838.2656
0.36;0.099647574;-2.100714;204.92068;-7747.2163;-7542.2954;-11994.853;0.0;0.0;1838.2656
0.365;0.099635825;-2.0974019;204.88617;-7746.965;-7542.0786;-11976.518;0.0;0.0;1838.2656
0.37;0.099626996;-2.0942023;204.86441;-7746.9717;-7542.1074;-11958.829;0.0;0.0;1838.2656
0.375;0.099621385;-2.0909636;204.85324;-7746.829;-7541.976;-11940.945;0.0;0.0;1838.2656
0.38;0.09961765;-2.0876794;204.8515;-7746.5938;-7541.742;-11922.831;0.0;0.0;1838.2656
0.385;0.09961654;-2.084561;204.85773;-7746.596;-7541.7383;-11905.646;0.0;0.0;1838.2656
0.39;0.0996166;-2.0814195;204.86868;-7746.547;-7541.678;-11888.343;0.0;0.0;1838.2656
0.395;0.09961772;-2.0782857;204.8835;-7746.4126;-7541.5293;-11871.09;0.0;0.0;1838.2656
0.4;0.09961958;-2.0752451;204.90004;-7746.3896;-7541.4897;-11854.355;0.0;0.0;1838.2656
0.405;0.09962146;-2.072223;204.91772;-7746.336;-7541.418;-11837.724;0.0;0.0;1838.2656
0.41;0.09962385;-2.0692255;204.93674;-7746.278;-7541.3413;-11821.232;0.0;0.0;1838.2656
0.415;0.099626325;-2.0663996;204.95665;-7746.4146;-7541.458;-11805.687;0.0;0.0;1838.2656
0.42;0.09962916;-2.063638;204.97725;-7746.631;-7541.654;-11790.499;0.0;0.0;1838.2656
0.425;0.09963194;-2.0608337;204.9977;-7746.66;-7541.6626;-11775.075;0.0;0.0;1838.2656
0.43;0.099634685;-2.058349;205.01819;-7747.203;-7542.185;-11761.413;0.0;0.0;1838.2656
0.435;0.09963749;-2.055708;205.03778;-7747.3623;-7542.3247;-11746.888;0.0;0.0;1838.2656
0.44;0.09963982;-2.0531769;205.05722;-7747.6494;-7542.5923;-11732.968;0.0;0.0;1838.2656
0.445;0.09964253;-2.0507042;205.0765;-7747.9434;-7542.8667;-11719.371;0.0;0.0;1838.2656
0.45;0.0996448;-2.04828;205.09593;-7748.2754;-7543.1797;-11706.04;0.0;0.0;1838.2656
0.455;0.099647604;-2.0458806;205.11691;-7748.4966;-7543.38;-11692.85;0.0;0.0;1838.2656
0.46;0.099650614;-2.0436256;205.1395;-7748.873;-7543.7334;-11680.459;0.0;0.0;1838.2656
0.465;0.099654235;-2.0413282;205.16351;-7749.1055;-7543.942;-11667.837;0.0;0.0;1838.2656
0.47;0.09965792;-2.0391772;205.18846;-7749.4688;-7544.2803;-11656.024;0.0;0.0;1838.2656
0.475;0.09966198;-2.0371675;205.21454;-7749.948;-7544.734;-11644.995;0.0;0.0;1838.2656
0.48;0.09966626;-2.035297;205.2419;-7750.5806;-7545.339;-11634.733;0.0;0.0;1838.2656
0.485;0.09967091;-2.0335844;205.27289;-7751.3633;-7546.0903;-11625.351;0.0;0.0;1838.2656
0.49;0.09967698;-2.0318825;205.30753;-7751.9736;-7546.666;-11616.035;0.0;0.0;1838.2656
0.495;0.09968338;-2.030384;205.34613;-7752.838;-7547.4917;-11607.848;0.0;0.0;1838.2656
0.5;0.09969136;-2.0289264;205.38928;-7753.614;-7548.2246;-11599.8955;0.0;0.0;1838.2656
0.505;0.09969998;-2.0276568;205.43658;-7754.584;-7549.1475;-11592.989;0.0;0.0;1838.2656
0.51;0.09970993;-2.0264494;205.48871;-7755.4453;-7549.9565;-11586.434;0.0;0.0;1838.2656
0.515;0.09972086;-2.025435;205.54497;-7756.5283;-7550.9834;-11580.953;0.0;0.0;1838.2656
0.52;0.09973269;-2.024396;205.60536;-7757.3643;-7551.759;-11575.343;0.0;0.0;1838.2656
0.525;0.09974552;-2.0234823;205.66975;-7758.2314;-7552.5615;-11570.434;0.0;0.0;1838.2656
0.53;0.09975913;-2.0228636;205.73572;-7759.3896;-7553.654;-11567.153;0.0;0.0;1838.2656
0.535;0.099772505;-2.022332;205.80014;-7760.578;-7554.778;-11564.35;0.0;0.0;1838.2656
0.54;0.09978517;-2.0219586;205.86246;-7761.835;-7555.9727;-11562.416;0.0;0.0;1838.2656
0.545;0.09979739;-2.02163;205.92131;-7763.031;-7557.1094;-11560.722;0.0;0.0;1838.2656
0.55;0.099808216;-2.021543;205.97388;-7764.492;-7558.5186;-11560.347;0.0;0.0;1838.2656
0.555;0.099817276;-2.021509;206.01959;-7765.904;-7559.8843;-11560.25;0.0;0.0;1838.2656
0.56;0.09982474;-2.02159;206.05908;-7767.385;-7561.3257;-11560.776;0.0;0.0;1838.2656
0.565;0.0998307;-2.0216928;206.09221;-7768.836;-7562.7437;-11561.409;0.0;0.0;1838.2656
0.57;0.099835135;-2.0218992;206.11781;-7770.299;-7564.181;-11562.599;0.0;0.0;1838.2656
0.575;0.099837415;-2.02228;206.13657;-7772.063;-7565.9263;-11564.736;0.0;0.0;1838.2656
0.58;0.09983849;-2.022641;206.14911;-7773.71;-7567.561;-11566.752;0.0;0.0;1838.2656
0.585;0.099837735;-2.0229714;206.1563;-7775.2485;-7569.0923;-11568.589;0.0;0.0;1838.2656
0.59;0.09983624;-2.0232546;206.15747;-7776.662;-7570.505;-11570.153;0.0;0.0;1838.2656
0.595;0.09983256;-2.0235636;206.15057;-7778.1704;-7572.02;-11571.844;0.0;0.0;1838.2656
0.6;0.09982713;-2.024003;206.1362;-7779.872;-7573.736;-11574.238;0.0;0.0;1838.2656
0.605;0.09981983;-2.0244153;206.1138;-7781.5986;-7575.485;-11576.466;0.0;0.0;1838.2656
0.61;0.09981053;-2.0246205;206.08371;-7783.0264;-7576.943;-11577.538;0.0;0.0;1838.2656
0.615;0.099799566;-2.0249014;206.04565;-7784.6553;-7578.6094;-11579.012;0.0;0.0;1838.2656
0.62;0.09978646;-2.0251255;205.99893;-7786.25;-7580.251;-11580.153;0.0;0.0;1838.2656
0.625;0.099771366;-2.0251658;205.94504;-7787.633;-7581.688;-11580.268;0.0;0.0;1838.2656
0.63;0.09975487;-2.0251997;205.88495;-7789.1494;-7583.2646;-11580.334;0.0;0.0;1838.2656
0.635;0.09973686;-2.0250576;205.82086;-7790.4844;-7584.6636;-11579.423;0.0;0.0;1838.2656
0.64;0.09971859;-2.0248034;205.75494;-7791.7144;-7585.9595;-11577.889;0.0;0.0;1838.2656
0.645;0.0996998;-2.024438;205.6871;-7792.9453;-7587.2583;-11575.737;0.0;0.0;1838.2656
0.65;0.09968075;-2.0239954;205.62045;-7794.166;-7588.5454;-11573.165;0.0;0.0;1838.2656
0.655;0.09966264;-2.023317;205.55716;-7795.1387;-7589.5815;-11569.297;0.0;0.0;1838.2656
0.66;0.09964536;-2.0226173;205.49704;-7796.1777;-7590.6807;-11565.318;0.0;0.0;1838.2656
0.665;0.099628896;-2.0218365;205.44281;-7797.249;-7591.806;-11560.902;0.0;0.0;1838.2656
0.67;0.09961455;-2.02109;205.39697;-7798.494;-7593.097;-11556.695;0.0;0.0;1838.2656
0.675;0.09960226;-2.0200713;205.35905;-7799.35;-7593.991;-11551.0;0.0;0.0;1838.2656
0.68;0.09959181;-2.0190938;205.32861;-7800.3926;-7595.064;-11545.549;0.0;0.0;1838.2656
0.685;0.099583164;-2.0180364;205.30774;-7801.3374;-7596.03;-11539.677;0.0;0.0;1838.2656
0.69;0.09957733;-2.0168507;205.29608;-7802.1626;-7596.8667;-11533.114;0.0;0.0;1838.2656
0.695;0.09957319;-2.0157278;205.29291;-7803.13;-7597.837;-11526.915;0.0;0.0;1838.2656
0.7;0.09957147;-2.0146077;205.29791;-7804.083;-7598.785;-11520.748;0.0;0.0;1838.2656
0.705;0.09957121;-2.0135484;205.31009;-7805.2085;-7599.8984;-11514.93;0.0;0.0;1838.2656
0.71;0.0995729;-2.012343;205.33012;-7806.087;-7600.757;-11508.322;0.0;0.0;1838.2656
0.715;0.09957642;-2.0113106;205.35669;-7807.211;-7601.8545;-11502.683;0.0;0.0;1838.2656
0.72;0.099581175;-2.0101514;205.38734;-7808.071;-7602.6836;-11496.352;0.0;0.0;1838.2656
0.725;0.099586606;-2.0089977;205.4209;-7808.956;-7603.535;-11490.056;0.0;0.0;1838.2656
0.73;0.09959266;-2.0080712;205.45612;-7810.1655;-7604.7095;-11485.017;0.0;0.0;1838.2656
0.735;0.0995988;-2.0071287;205.49248;-7811.3135;-7605.821;-11479.892;0.0;0.0;1838.2656
0.74;0.09960537;-2.0060422;205.53004;-7812.131;-7606.6006;-11473.976;0.0;0.0;1838.2656
0.745;0.09961197;-2.0052614;205.5664;-7813.412;-7607.8457;-11469.742;0.0;0.0;1838.2656
0.75;0.0996179;-2.0043569;205.60101;-7814.4355;-7608.8345;-11464.822;0.0;0.0;1838.2656
0.755;0.09962358;-2.0036867;205.6335;-7815.8647;-7610.2314;-11461.191;0.0;0.0;1838.2656
0.76;0.09962843;-2.0030718;205.66258;-7817.2793;-7611.6167;-11457.858;0.0;0.0;1838.2656
0.765;0.09963242;-2.0025494;205.68814;-7818.7783;-7613.0903;-11455.029;0.0;0.0;1838.2656
0.77;0.09963553;-2.0020168;205.70981;-7820.3223;-7614.6123;-11452.136;0.0;0.0;1838.2656
0.775;0.0996376;-2.0014822;205.7279;-7821.7104;-7615.9824;-11449.224;0.0;0.0;1838.2656
0.78;0.09963896;-2.0010839;205.74234;-7823.4062;-7617.664;-11447.056;0.0;0.0;1838.2656
0.785;0.09963919;-2.0005882;205.75258;-7824.7964;-7619.044;-11444.342;0.0;0.0;1838.2656
0.79;0.0996385;-2.000208;205.7574;-7826.423;-7620.6655;-11442.255;0.0;0.0;1838.2656
0.795;0.099636056;-1.9996794;205.75645;-7827.759;-7622.0024;-11439.339;0.0;0.0;1838.2656
0.8;0.099632524;-1.9992679;205.74869;-7829.293;-7623.5444;-11437.054;0.0;0.0;1838.2656
0.805;0.09962671;-1.9988236;205.73286;-7830.815;-7625.082;-11434.572;0.0;0.0;1838.2656
0.81;0.09961929;-1.998483;205.70856;-7832.498;-7626.7896;-11432.645;0.0;0.0;1838.2656
0.815;0.09960933;-1.9979315;205.67474;-7833.967;-7628.292;-11429.536;0.0;0.0;1838.2656
0.82;0.099597335;-1.9974065;205.63239;-7835.4346;-7629.8022;-11426.556;0.0;0.0;1838.2656
0.825;0.09958325;-1.9968367;205.58058;-7836.914;-7631.3335;-11423.31;0.0;0.0;1838.2656
0.83;0.09956679;-1.9960582;205.5213;-7838.1133;-7632.592;-11418.898;0.0;0.0;1838.2656
0.835;0.09954918;-1.9953787;205.45547;-7839.6055;-7634.15;-11415.02;0.0;0.0;1838.2656
0.84;0.099529706;-1.9944955;205.38474;-7840.8403;-7635.4556;-11410.007;0.0;0.0;1838.2656
0.845;0.09950983;-1.9935782;205.31247;-7842.112;-7636.7993;-11404.804;0.0;0.0;1838.2656
0.85;0.09948985;-1.9925447;205.24129;-7843.3154;-7638.074;-11398.962;0.0;0.0;1838.2656
0.855;0.09947067;-1.991427;205.17343;-7844.457;-7639.2837;-11392.662;0.0;0.0;1838.2656
0.86;0.09945246;-1.9902021;205.11235;-7845.5264;-7640.414;-11385.785;0.0;0.0;1838.2656
0.865;0.09943671;-1.9887934;205.06094;-7846.3306;-7641.2695;-11377.913;0.0;0.0;1838.2656
0.87;0.09942332;-1.9875222;205.01909;-7847.451;-7642.432;-11370.82;0.0;0.0;1838.2656
0.875;0.09941228;-1.9861921;204.98924;-7848.5713;-7643.582;-11363.425;0.0;0.0;1838.2656
0.88;0.09940477;-1.984892;204.97275;-7849.752;-7644.7793;-11356.222;0.0;0.0;1838.2656
0.885;0.09940023;-1.983555;204.9701;-7850.875;-7645.905;-11348.843;0.0;0.0;1838.2656
0.89;0.09939942;-1.9821063;204.98074;-7851.797;-7646.816;-11340.875;0.0;0.0;1838.2656
0.895;0.09940127;-1.9807534;205.00262;-7852.847;-7647.8447;-11333.458;0.0;0.0;1838.2656
0.9;0.09940582;-1.9795218;205.03525;-7854.0933;-7649.058;-11326.731;0.0;0.0;1838.2656
0.905;0.099412784;-1.9782449;205.07758;-7855.2056;-7650.128;-11319.773;0.0;0.0;1838.2656
0.91;0.09942195;-1.977008;205.12784;-7856.3013;-7651.1733;-11313.053;0.0;0.0;1838.2656
0.915;0.09943256;-1.9758886;205.18216;-7857.4404;-7652.2583;-11306.988;0.0;0.0;1838.2656
0.92;0.099443585;-1.9749126;205.24014;-7858.8213;-7653.581;-11301.722;0.0;0.0;1838.2656
0.925;0.09945581;-1.9739842;205.30002;-7860.169;-7654.869;-11296.723;0.0;0.0;1838.2656
0.93;0.099467576;-1.9733115;205.35832;-7861.8535;-7656.495;-11293.129;0.0;0.0;1838.2656
0.935;0.099478886;-1.9725468;205.4146;-7863.3423;-7657.9277;-11289.024;0.0;0.0;1838.2656
0.94;0.09948956;-1.9718626;205.46573;-7864.791;-7659.325;-11285.353;0.0;0.0;1838.2656
0.945;0.099498235;-1.9712605;205.50937;-7866.3745;-7660.865;-11282.12;0.0;0.0;1838.2656
0.95;0.09950518;-1.9707593;205.54459;-7868.0293;-7662.485;-11279.427;0.0;0.0;1838.2656
0.955;0.099509664;-1.9703835;205.57106;-7869.86;-7664.2886;-11277.407;0.0;0.0;1838.2656
0.96;0.09951235;-1.9699771;205.5872;-7871.6562;-7666.069;-11275.198;0.0;0.0;1838.2656
0.965;0.09951181;-1.9696746;205.5921;-7873.568;-7667.9756;-11273.539;0.0;0.0;1838.2656
0.97;0.099509075;-1.9692577;205.58768;-7875.2783;-7669.6904;-11271.231;0.0;0.0;1838.2656
0.975;0.09950403;-1.9688361;205.57529;-7877.0654;-7671.49;-11268.882;0.0;0.0;1838.2656
0.98;0.09949749;-1.9683777;205.55377;-7878.746;-7673.1924;-11266.311;0.0;0.0;1838.2656
0.985;0.09948815;-1.9679685;205.52423;-7880.6504;-7675.126;-11263.994;0.0;0.0;1838.2656
0.99;0.09947781;-1.9674256;205.49017;-7882.338;-7676.8477;-11260.933;0.0;0.0;1838.2656
0.995;0.099466436;-1.9668218;205.45294;-7883.961;-7678.508;-11257.528;0.0;0.0;1838.2656
1.0;0.09945471;-1.9662836;205.4158;-7885.8027;-7680.3867;-11254.486;0.0;0.0;1838.2656
1.005;0.09944353;-1.9655632;205.38138;-7887.4043;-7682.023;-11250.444;0.0;0.0;1838.2656
1.01;0.099433236;-1.9648515;205.35083;-7889.061;-7683.71;-11246.459;0.0;0.0;1838.2656
1.015;0.09942406;-1.9640079;205.32617;-7890.5684;-7685.242;-11241.757;0.0;0.0;1838.2656
1.02;0.09941675;-1.9631579;205.31075;-7892.0645;-7686.754;-11237.039;0.0;0.0;1838.2656
1.025;0.0994121;-1.962369;205.3062;-7893.7847;-7688.4785;-11232.679;0.0;0.0;1838.2656
1.03;0.099410094;-1.9614615;205.31323;-7895.248;-7689.9346;-11227.688;0.0;0.0;1838.2656
1.035;0.09941103;-1.9606785;205.33234;-7896.921;-7691.5884;-11223.408;0.0;0.0;1838.2656
1.04;0.09941481;-1.9598694;205.36159;-7898.573;-7693.2114;-11219.005;0.0;0.0;1838.2656
1.045;0.09942056;-1.9590642;205.39944;-7900.204;-7694.8047;-11214.64;0.0;0.0;1838.2656
1.05;0.09942839;-1.9583765;205.44537;-7902.026;-7696.5806;-11210.939;0.0;0.0;1838.2656
1.055;0.09943784;-1.957882;205.49585;-7904.1113;-7698.615;-11208.313;0.0;0.0;1838.2656
1.06;0.09944768;-1.9573047;205.54762;-7906.0596;-7700.5117;-11205.233;0.0;0.0;1838.2656
1.065;0.09945762;-1.956838;205.59795;-7908.0776;-7702.4795;-11202.76;0.0;0.0;1838.2656
1.07;0.09946653;-1.9564215;205.6444;-7910.211;-7704.5664;-11200.556;0.0;0.0;1838.2656
1.075;0.099474415;-1.9561445;205.68457;-7912.6006;-7706.916;-11199.108;0.0;0.0;1838.2656
1.08;0.09948019;-1.9556967;205.71527;-7914.6416;-7708.9263;-11196.7;0.0;0.0;1838.2656
1.085;0.09948333;-1.9552101;205.73566;-7916.6387;-7710.903;-11194.058;0.0;0.0;1838.2656
1.09;0.09948403;-1.9546891;205.74478;-7918.631;-7712.886;-11191.203;0.0;0.0;1838.2656
1.095;0.09948167;-1.9541833;205.74095;-7920.719;-7714.9785;-11188.406;0.0;0.0;1838.2656
1.1;0.09947608;-1.95374;205.72273;-7922.998;-7717.2754;-11185.925;0.0;0.0;1838.2656
1.105;0.09946679;-1.9532473;205.69109;-7925.31;-7719.619;-11183.145;0.0;0.0;1838.2656
1.11;0.09945478;-1.9525516;205.64725;-7927.4434;-7721.796;-11179.22;0.0;0.0;1838.2656
1.115;0.09943968;-1.9517386;205.59117;-7929.564;-7723.9727;-11174.625;0.0;0.0;1838.2656
1.12;0.09942194;-1.950719;205.52602;-7931.4536;-7725.9277;-11168.871;0.0;0.0;1838.2656
1.125;0.09940255;-1.9495894;205.45395;-7933.4067;-7727.9526;-11162.497;0.0;0.0;1838.2656
1.13;0.09938168;-1.9482801;205.37819;-7935.255;-7729.8765;-11155.125;0.0;0.0;1838.2656
1.135;0.09936068;-1.9468094;205.30145;-7937.084;-7731.7827;-11146.861;0.0;0.0;1838.2656
1.14;0.09933953;-1.9451123;205.22537;-7938.7275;-7733.502;-11137.35;0.0;0.0;1838.2656
