time;temperature;pressure;kinetic_energy;potential_energy;total_energy;virial;msd;diffusion;volume
0.005;0.49999502;-2.564508;1028.6031;-7984.696;-6956.093;-16199.946;0.0;0.0;1838.2656
0.01;0.4998021;-2.5592384;1027.8157;-7982.6875;-6954.872;-16169.312;0.0;0.0;1838.2656
0.015;0.49960744;-2.5479634;1027.0385;-7975.159;-6948.1206;-16105.577;0.0;0.0;1838.2656
0.02;0.4994193;-2.531837;1026.2219;-7964.323;-6938.1016;-16015.011;0.0;0.0;1838.2656
0.025;0.49920553;-2.512532;1025.2561;-7953.3516;-6928.0957;-15906.616;0.0;0.0;1838.2656
0.03;0.4989449;-2.4900255;1024.0809;-7942.395;-6918.314;-15780.146;0.0;0.0;1838.2656
0.035;0.49862948;-2.463959;1022.66516;-7930.979;-6908.314;-15633.563;0.0;0.0;1838.2656
0.04;0.49825186;-2.4342659;1020.9704;-7919.2935;-6898.323;-15466.423;0.0;0.0;1838.2656
0.045;0.497801;-2.4000912;1018.95795;-7906.053;-6887.095;-15273.932;0.0;0.0;1838.2656
0.05;0.49726963;-2.3613048;1016.59186;-7891.3506;-6874.759;-15055.299;0.0;0.0;1838.2656
0.055;0.49664792;-2.3173275;1013.8407;-7874.469;-6860.6284;-14807.271;0.0;0.0;1838.2656
0.06;0.49593124;-2.2675195;1010.6934;-7854.6084;-6843.915;-14526.297;0.0;0.0;1838.2656
0.065;0.4951203;-2.2115824;1007.17017;-7831.4834;-6824.3135;-14210.769;0.0;0.0;1838.2656
0.07;0.49422616;-2.1491446;1003.3408;-7804.5366;-6801.196;-13858.778;0.0;0.0;1838.2656
0.075;0.49327457;-2.0803711;999.3323;-7774.135;-6774.8027;-13471.488;0.0;0.0;1838.2656
0.08;0.49230412;-2.0052798;995.3302;-7740.0244;-6744.6943;-13049.371;0.0;0.0;1838.2656
0.085;0.49136853;-1.9244661;991.56537;-7702.734;-6711.1685;-12596.171;0.0;0.0;1838.2656
0.09;0.49052703;-1.8383765;988.2766;-7662.14;-6673.8633;-12114.826;0.0;0.0;1838.2656
0.095;0.48983595;-1.7482134;985.6715;-7619.2534;-6633.582;-11612.385;0.0;0.0;1838.2656
0.1;0.4893385;-1.6553044;983.9169;-7574.901;-6590.984;-11096.501;0.0;0.0;1838.2656
0.105;0.4890715;-1.5608326;983.14734;-7529.5225;-6546.375;-10573.97;0.0;0.0;1838.2656
0.11;0.4890622;-1.46695;983.4635;-7485.124;-6501.6606;-10056.858;0.0;0.0;1838.2656
0.115;0.4893294;-1.3749335;984.9127;-7442.1084;-6457.196;-9552.305;0.0;0.0;1838.2656
0.12;0.4898719;-1.2867149;987.45776;-7401.833;-6414.375;-9070.887;0.0;0.0;1838.2656
0.125;0.49066517;-1.2034864;990.95776;-7364.8164;-6373.8584;-8618.899;0.0;0.0;1838.2656
0.13;0.49165782;-1.1267025;995.1741;-7331.756;-6336.582;-8203.884;0.0;0.0;1838.2656
0.135;0.4927787;-1.0572639;999.8164;-7303.244;-6303.4277;-7830.228;0.0;0.0;1838.2656
0.14;0.49395517;-0.99575484;1004.5829;-7279.619;-6275.036;-7500.5513;0.0;0.0;1838.2656
0.145;0.49511322;-0.9421475;1009.2073;-7260.454;-6251.247;-7214.1665;0.0;0.0;1838.2656
0.15;0.49620122;-0.89621407;1013.49896;-7245.46;-6231.961;-6969.4365;0.0;0.0;1838.2656
0.155;0.49718273;-0.85762435;1017.34045;-7234.3916;-6217.0513;-6764.3047;0.0;0.0;1838.2656
0.16;0.49804196;-0.8255356;1020.67914;-7226.5215;-6205.8423;-6594.019;0.0;0.0;1838.2656
0.165;0.49877337;-0.79932344;1023.5001;-7221.382;-6197.882;-6455.1064;0.0;0.0;1838.2656
0.17;0.4993776;-0.77823395;1025.8115;-7218.55;-6192.7383;-6343.4253;0.0;0.0;1838.2656
0.175;0.49985996;-0.7617488;1027.637;-7217.918;-6190.2812;-6256.1636;0.0;0.0;1838.2656
0.18;0.500228;-0.7484929;1029.0017;-7218.095;-6189.0938;-6185.7896;0.0;0.0;1838.2656
0.185;0.50048715;-0.73827064;1029.9211;-7219.5654;-6189.6445;-6131.255;0.0;0.0;1838.2656
0.19;0.5006403;-0.7299971;1030.4122;-7221.308;-6190.896;-6086.6104;0.0;0.0;1838.2656
0.195;0.5006924;-0.7233626;1030.483;-7223.643;-6193.16;-6050.164;0.0;0.0;1838.2656
0.2;0.5006431;-0.7170585;1030.1444;-7225.1646;-6195.02;-6014.7207;0.0;0.0;1838.2656
0.205;0.50050026;-0.71090823;1029.4336;-7226.2134;-6196.78;-5979.3813;0.0;0.0;1838.2656
0.21;0.50027674;-0.7043416;1028.4418;-7226.4277;-6197.986;-5941.1846;0.0;0.0;1838.2656
0.215;0.5000077;-0.6968163;1027.3164;-7225.42;-6198.1035;-5897.433;0.0;0.0;1838.2656
0.22;0.499731;-0.68837196;1026.2378;-7223.2764;-6197.0386;-5848.707;0.0;0.0;1838.2656
0.225;0.49949548;-0.6790548;1025.3815;-7220.228;-6194.8467;-5795.6123;0.0;0.0;1838.2656
0.23;0.49933496;-0.6690139;1024.8638;-7216.2827;-6191.419;-5739.2036;0.0;0.0;1838.2656
0.235;0.4992674;-0.6590771;1024.7206;-7212.551;-6187.83;-5684.1177;0.0;0.0;1838.2656
0.24;0.49928692;-0.6493715;1024.8975;-7208.828;-6183.9307;-5630.947;0.0;0.0;1838.2656
0.245;0.49936852;-0.64033896;1025.2654;-7205.6245;-6180.3594;-5581.87;0.0;0.0;1838.2656
0.25;0.4994722;-0.6319455;1025.669;-7202.872;-6177.203;-5536.389;0.0;0.0;1838.2656
0.255;0.49956378;-0.62417233;1025.9778;-7200.545;-6174.5674;-5494.139;0.0;0.0;1838.2656
0.26;0.49961683;-0.616606;1026.117;-7198.0576;-6171.9404;-5452.691;0.0;0.0;1838.2656
0.265;0.49962443;-0.60911775;1026.0793;-7195.5386;-6169.459;-5411.3193;0.0;0.0;1838.2656
0.27;0.49959305;-0.6015955;1025.8971;-7192.7417;-6166.8447;-5369.471;0.0;0.0;1838.2656
0.275;0.4995331;-0.5938409;1025.6239;-7189.7295;-6164.1055;-5326.1597;0.0;0.0;1838.2656
0.28;0.4994611;-0.5860333;1025.324;-7186.823;-6161.499;-5282.5024;0.0;0.0;1838.2656
0.285;0.4993921;-0.5777899;1025.0537;-7183.4062;-6158.3525;-5236.5015;0.0;0.0;1838.2656
0.29;0.499337;-0.5694532;1024.8513;-7179.9414;-6155.09;-5190.121;0.0;0.0;1838.2656
0.295;0.4993028;-0.5609712;1024.7297;-7176.3306;-6151.6006;-5143.1016;0.0;0.0;1838.2656
0.3;0.4992883;-0.5524933;1024.6871;-7172.578;-6147.891;-5096.262;0.0;0.0;1838.2656
0.305;0.49929333;-0.5439626;1024.7239;-7168.673;-6143.949;-5049.291;0.0;0.0;1838.2656
0.31;0.49931854;-0.5358661;1024.847;-7165.1035;-6140.2563;-5004.8867;0.0;0.0;1838.2656
0.315;0.49936712;-0.5282165;1025.0798;-7161.8877;-6136.8076;-4963.166;0.0;0.0;1838.2656
0.32;0.4994477;-0.52116764;1025.4633;-7159.1797;-6133.7163;-4925.06;0.0;0.0;1838.2656
0.325;0.4995715;-0.51485705;1026.0428;-7156.7627;-6130.7197;-4891.418;0.0;0.0;1838.2656
0.33;0.49974695;-0.50945634;1026.8281;-7154.992;-6128.164;-4863.2046;0.0;0.0;1838.2656
0.335;0.49996632;-0.5054917;1027.7661;-7154.245;-6126.479;-4843.2163;0.0;0.0;1838.2656
0.34;0.50020593;-0.5028391;1028.7218;-7154.5664;-6125.8447;-4830.499;0.0;0.0;1838.2656
0.345;0.50042224;-0.5014862;1029.509;-7155.71;-6126.201;-4824.6123;0.0;0.0;1838.2656
0.35;0.5005704;-0.5011046;1029.9935;-7157.551;-6127.557;-4823.477;0.0;0.0;1838.2656
0.355;0.50063694;-0.50118583;1030.166;-7159.5093;-6129.3433;-4824.27;0.0;0.0;1838.2656
0.36;0.5006367;-0.50142694;1030.105;-7161.335;-6131.23;-4825.4775;0.0;0.0;1838.2656
0.365;0.500595;-0.5013921;1029.927;-7162.7163;-6132.789;-4824.9297;0.0;0.0;1838.2656
0.37;0.50054187;-0.501153;1029.7168;-7163.6963;-6133.9795;-4823.191;0.0;0.0;1838.2656
0.375;0.500486;-0.50098747;1029.5122;-7164.922;-6135.4097;-4821.8687;0.0;0.0;1838.2656
0.38;0.5004356;-0.50090355;1029.324;-7166.3037;-6136.9795;-4821.0293;0.0;0.0;1838.2656
0.385;0.50038755;-0.50039333;1029.1523;-7167.01;-6137.8574;-4817.872;0.0;0.0;1838.2656
0.39;0.5003444;-0.49990857;1028.9855;-7167.8257;-6138.8403;-4814.865;0.0;0.0;1838.2656
0.395;0.5002982;-0.49943513;1028.8125;-7168.6836;-6139.871;-4811.908;0.0;0.0;1838.2656
0.4;0.5002522;-0.49865046;1028.6387;-7168.991;-6140.3525;-4807.2334;0.0;0.0;1838.2656
0.405;0.5002064;-0.49773493;1028.478;-7169.0327;-6140.5547;-4801.8633;0.0;0.0;1838.2656
0.41;0.50016856;-0.49697033;1028.3618;-7169.407;-6141.0454;-4797.414;0.0;0.0;1838.2656
0.415;0.50014657;-0.49617776;1028.3173;-7169.5312;-6141.214;-4792.954;0.0;0.0;1838.2656
0.42;0.5001437;-0.49553442;1028.3564;-7169.8804;-6141.524;-4789.485;0.0;0.0;1838.2656
0.425;0.50016207;-0.494988;1028.454;-7170.164;-6141.71;-4786.666;0.0;0.0;1838.2656
0.43;0.50018555;-0.4947303;1028.5637;-7170.716;-6142.1523;-4785.4644;0.0;0.0;1838.2656
0.435;0.500208;-0.49477792;1028.6456;-7171.5317;-6142.886;-4785.891;0.0;0.0;1838.2656
0.44;0.5002166;-0.49491906;1028.6675;-7172.2603;-6143.593;-4786.713;0.0;0.0;1838.2656
0.445;0.50021034;-0.4950986;1028.6361;-7172.879;-6144.2427;-4787.6406;0.0;0.0;1838.2656
0.45;0.50019443;-0.49519986;1028.5717;-7173.411;-6144.8394;-4788.07;0.0;0.0;1838.2656
0.455;0.5001738;-0.49525484;1028.4991;-7173.8145;-6145.3154;-4788.228;0.0;0.0;1838.2656
0.46;0.5001541;-0.49523365;1028.4187;-7174.1396;-6145.7207;-4787.95;0.0;0.0;1838.2656
0.465;0.50012857;-0.49503767;1028.2969;-7174.1533;-6145.8564;-4786.626;0.0;0.0;1838.2656
0.47;0.50008637;-0.49466497;1028.0845;-7174.0312;-6145.947;-4784.146;0.0;0.0;1838.2656
0.475;0.5000158;-0.49416715;1027.748;-7173.912;-6146.164;-4780.7275;0.0;0.0;1838.2656
0.48;0.4999141;-0.4932311;1027.2944;-7173.504;-6146.2095;-4774.658;0.0;0.0;1838.2656
0.485;0.49979025;-0.49165893;1026.7817;-7172.426;-6145.644;-4764.9624;0.0;0.0;1838.2656
0.49;0.49966612;-0.48943108;1026.3081;-7170.743;-6144.435;-4751.729;0.0;0.0;1838.2656
0.495;0.49956813;-0.48657987;1025.9929;-7168.3633;-6142.37;-4735.375;0.0;0.0;1838.2656
0.5;0.49952656;-0.48378485;1025.938;-7166.1387;-6140.2007;-4719.851;0.0;0.0;1838.2656
0.505;0.49955717;-0.4812981;1026.1917;-7164.175;-6137.9834;-4706.6445;0.0;0.0;1838.2656
0.51;0.49966392;-0.47978294;1026.74;-7163.247;-6136.507;-4699.3853;0.0;0.0;1838.2656
0.515;0.49983108;-0.47912005;1027.488;-7162.95;-6135.462;-4697.2256;0.0;0.0;1838.2656
0.52;0.50002587;-0.47942084;1028.2994;-7163.223;-6134.924;-4700.5073;0.0;0.0;1838.2656
0.525;0.5002155;-0.48091155;1029.052;-7164.413;-6135.3613;-4710.2334;0.0;0.0;1838.2656
0.53;0.5003759;-0.48354584;1029.6726;-7166.466;-6136.793;-4726.0024;0.0;0.0;1838.2656
0.535;0.50049883;-0.48661885;1030.1345;-7168.5244;-6138.3896;-4743.873;0.0;0.0;1838.2656
0.54;0.5005821;-0.49055192;1030.448;-7171.225;-6140.7773;-4766.19;0.0;0.0;1838.2656
0.545;0.50063294;-0.49474755;1030.6293;-7174.0054;-6143.376;-4789.691;0.0;0.0;1838.2656
0.55;0.50065315;-0.49908742;1030.6919;-7176.7705;-6146.0786;-4813.7495;0.0;0.0;1838.2656
0.555;0.5006477;-0.50374573;1030.6478;-7179.935;-6149.287;-4839.351;0.0;0.0;1838.2656
0.56;0.5006172;-0.5080946;1030.5083;-7182.5996;-6152.0913;-4863.055;0.0;0.0;1838.2656
0.565;0.5005667;-0.51232594;1030.2805;-7185.231;-6154.95;-4885.9346;0.0;0.0;1838.2656
0.57;0.500494;-0.51598895;1029.9629;-7187.1865;-6157.2236;-4905.5;0.0;0.0;1838.2656
0.575;0.50040096;-0.51914626;1029.5557;-7188.8613;-6159.3057;-4922.0977;0.0;0.0;1838.2656
0.58;0.50028694;-0.5217828;1029.0725;-7190.2363;-6161.164;-4935.6714;0.0;0.0;1838.2656
0.585;0.5001599;-0.5237694;1028.55;-7191.134;-6162.584;-4945.5815;0.0;0.0;1838.2656
0.59;0.5000305;-0.52484196;1028.0436;-7191.2915;-6163.248;-4950.484;0.0;0.0;1838.2656
0.595;0.49991536;-0.52529114;1027.6066;-7191.1465;-6163.54;-4952.087;0.0;0.0;1838.2656
0.6;0.49982205;-0.52521473;1027.2611;-7190.6787;-6163.4175;-4950.9746;0.0;0.0;1838.2656
0.605;0.49975184;-0.5246477;1027.0029;-7190.1313;-6163.1284;-4947.3315;0.0;0.0;1838.2656
0.61;0.49970022;-0.5235689;1026.8013;-7189.0894;-6162.288;-4940.979;0.0;0.0;1838.2656
0.615;0.49965498;-0.52201915;1026.5989;-7187.6973;-6161.0986;-4932.0273;0.0;0.0;1838.2656
0.62;0.49960116;-0.52028894;1026.3651;-7186.53;-6160.1646;-4922.018;0.0;0.0;1838.2656
0.625;0.49954095;-0.51798224;1026.1034;-7184.8564;-6158.753;-4908.774;0.0;0.0;1838.2656
0.63;0.49947494;-0.51527905;1025.8479;-7183.086;-6157.2383;-4893.355;0.0;0.0;1838.2656
0.635;0.4994208;-0.51226276;1025.6653;-7181.1235;-6155.458;-4876.3555;0.0;0.0;1838.2656
0.64;0.49939296;-0.50904924;1025.6133;-7179.0176;-6153.4043;-4858.53;0.0;0.0;1838.2656
0.645;0.49940354;-0.50587034;1025.7339;-7176.9146;-6151.1807;-4841.24;0.0;0.0;1838.2656
0.65;0.49945953;-0.5029246;1026.0376;-7175.013;-6148.9756;-4825.602;0.0;0.0;1838.2656
0.655;0.4995574;-0.5006558;1026.5127;-7173.6562;-6147.1436;-4814.0405;0.0;0.0;1838.2656
0.66;0.49969417;-0.4995559;1027.1389;-7173.622;-6146.4834;-4809.227;0.0;0.0;1838.2656
0.665;0.49986216;-0.49925643;1027.8815;-7173.9116;-6146.0303;-4809.061;0.0;0.0;1838.2656
0.67;0.5000512;-0.49995592;1028.7059;-7174.8203;-6146.1143;-4814.5674;0.0;0.0;1838.2656
0.675;0.5002547;-0.50195646;1029.5664;-7176.6997;-6147.1333;-4827.321;0.0;0.0;1838.2656
0.68;0.50045526;-0.50517917;1030.387;-7179.444;-6149.0566;-4846.7344;0.0;0.0;1838.2656
0.685;0.5006324;-0.5092503;1031.0686;-7182.541;-6151.4727;-4870.5493;0.0;0.0;1838.2656
0.69;0.50075865;-0.5144141;1031.4943;-7186.7573;-6155.263;-4899.8774;0.0;0.0;1838.2656
0.695;0.5008062;-0.5198782;1031.5742;-7191.081;-6159.507;-4930.1714;0.0;0.0;1838.2656
0.7;0.5007629;-0.52495295;1031.2794;-7194.8135;-6163.534;-4957.568;0.0;0.0;1838.2656
0.705;0.5006319;-0.5292435;1030.6531;-7197.7617;-6167.1084;-4979.977;0.0;0.0;1838.2656
0.71;0.5004345;-0.53258246;1029.8125;-7199.9736;-6170.161;-4996.709;0.0;0.0;1838.2656
0.715;0.5002087;-0.5346545;1028.9075;-7201.216;-6172.3086;-5006.3257;0.0;0.0;1838.2656
0.72;0.49998856;-0.5357831;1028.0708;-7202.0576;-6173.987;-5010.877;0.0;0.0;1838.2656
0.725;0.49980247;-0.53569317;1027.3887;-7202.0005;-6174.612;-5009.016;0.0;0.0;1838.2656
0.73;0.49966103;-0.5347059;1026.8883;-7201.3037;-6174.4155;-5002.571;0.0;0.0;1838.2656
0.735;0.49956414;-0.5330542;1026.557;-7200.2656;-6173.7085;-4992.7993;0.0;0.0;1838.2656
0.74;0.499504;-0.53113097;1026.3516;-7199.312;-6172.9604;-4981.782;0.0;0.0;1838.2656
0.745;0.49946687;-0.52888924;1026.2222;-7198.3677;-6172.1455;-4969.161;0.0;0.0;1838.2656
0.75;0.49944195;-0.5262954;1026.1215;-7197.1074;-6170.986;-4954.6553;0.0;0.0;1838.2656
0.755;0.4994175;-0.52338165;1026.0161;-7195.7344;-6169.7183;-4938.3755;0.0;0.0;1838.2656
0.76;0.4993903;-0.5204497;1025.8998;-7194.5625;-6168.6626;-4921.9736;0.0;0.0;1838.2656
0.765;0.49936095;-0.5171183;1025.7766;-7192.955;-6167.1787;-4903.3555;0.0;0.0;1838.2656
0.77;0.49933153;-0.5136202;1025.6685;-7191.369;-6165.7007;-4883.848;0.0;0.0;1838.2656
0.775;0.4993097;-0.509687;1025.5876;-7189.1973;-6163.6094;-4861.9956;0.0;0.0;1838.2656
0.78;0.49929333;-0.5058128;1025.5178;-7187.288;-6161.7705;-4840.4907;0.0;0.0;1838.2656
0.785;0.49927554;-0.5019602;1025.4304;-7185.532;-6160.1016;-4819.0693;0.0;0.0;1838.2656
0.79;0.49924943;-0.4979173;1025.2942;-7183.563;-6158.2686;-4796.501;0.0;0.0;1838.2656
0.795;0.4992079;-0.49360606;1025.0872;-7181.323;-6156.2363;-4772.3115;0.0;0.0;1838.2656
0.8;0.49914882;-0.48924804;1024.8242;-7179.002;-6154.1777;-4747.752;0.0;0.0;1838.2656
0.805;0.49908394;-0.48443803;1024.56;-7176.136;-6151.576;-4720.6973;0.0;0.0;1838.2656
0.81;0.49903002;-0.4796536;1024.3845;-7173.3633;-6148.9785;-4693.9614;0.0;0.0;1838.2656
0.815;0.4990144;-0.4750396;1024.4109;-7170.616;-6146.205;-4668.569;0.0;0.0;1838.2656
0.82;0.4990634;-0.47076622;1024.734;-7168.0435;-6143.3096;-4645.648;0.0;0.0;1838.2656
0.825;0.49919444;-0.4674134;1025.4183;-7166.177;-6140.7583;-4628.527;0.0;0.0;1838.2656
0.83;0.49941665;-0.4655269;1026.4543;-7165.4805;-6139.0264;-4620.1953;0.0;0.0;1838.2656
0.835;0.4997103;-0.46511754;1027.7448;-7165.5527;-6137.808;-4620.518;0.0;0.0;1838.2656
0.84;0.500043;-0.46672752;1029.1117;-7167.3228;-6138.211;-4632.131;0.0;0.0;1838.2656
0.845;0.5003585;-0.47016793;1030.3407;-7170.355;-6140.014;-4653.562;0.0;0.0;1838.2656
0.85;0.5006108;-0.47494367;1031.261;-7174.295;-6143.034;-4681.7397;0.0;0.0;1838.2656
0.855;0.5007681;-0.48073763;1031.7725;-7178.994;-6147.2217;-4714.7153;0.0;0.0;1838.2656
0.86;0.5008188;-0.487005;1031.8458;-7184.0234;-6152.1777;-4749.4253;0.0;0.0;1838.2656
0.865;0.5007643;-0.4928162;1031.5083;-7188.417;-6156.9087;-4780.798;0.0;0.0;1838.2656
0.87;0.5006198;-0.49774614;1030.8281;-7191.8286;-6161.0005;-4806.625;0.0;0.0;1838.2656
0.875;0.50040585;-0.50163096;1029.919;-7194.6357;-6164.717;-4826.231;0.0;0.0;1838.2656
0.88;0.500159;-0.5043287;1028.9009;-7196.5547;-6167.654;-4839.0723;0.0;0.0;1838.2656
0.885;0.4999007;-0.5054904;1027.8888;-7197.2954;-6169.4067;-4843.4546;0.0;0.0;1838.2656
0.89;0.49966493;-0.50528127;1026.9961;-7196.9697;-6169.9736;-4840.5156;0.0;0.0;1838.2656
0.895;0.4994708;-0.5041378;1026.2963;-7196.045;-6169.7485;-4832.81;0.0;0.0;1838.2656
0.9;0.49933234;-0.50209266;1025.8297;-7194.5015;-6168.672;-4820.5986;0.0;0.0;1838.2656
0.905;0.49925345;-0.49973783;1025.5984;-7192.926;-6167.327;-4807.1494;0.0;0.0;1838.2656
0.91;0.499229;-0.49732518;1025.5874;-7191.457;-6165.8696;-4793.8223;0.0;0.0;1838.2656
0.915;0.49925512;-0.49504822;1025.7654;-7190.2573;-6164.492;-4781.621;0.0;0.0;1838.2656
0.92;0.49931926;-0.49299002;1026.0684;-7189.361;-6163.2925;-4770.8765;0.0;0.0;1838.2656
0.925;0.49940032;-0.49118635;1026.3961;-7188.574;-6162.178;-4761.585;0.0;0.0;1838.2656
0.93;0.4994695;-0.4899031;1026.626;-7188.4795;-6161.8535;-4754.968;0.0;0.0;1838.2656
0.935;0.49949637;-0.48819292;1026.6444;-7187.6846;-6161.04;-4745.5737;0.0;0.0;1838.2656
0.94;0.4994597;-0.4863352;1026.387;-7186.8286;-6160.4414;-4734.814;0.0;0.0;1838.2656
0.945;0.499353;-0.4837466;1025.8558;-7185.481;-6159.625;-4719.476;0.0;0.0;1838.2656
0.95;0.49918845;-0.48034707;1025.1329;-7183.6035;-6158.4707;-4699.282;0.0;0.0;1838.2656
0.955;0.49899593;-0.47575688;1024.344;-7180.8438;-6156.5;-4672.3906;0.0;0.0;1838.2656
0.96;0.49880698;-0.47021636;1023.59705;-7177.334;-6153.737;-4640.342;0.0;0.0;1838.2656
0.965;0.49864063;-0.46372217;1022.975;-7173.295;-6150.32;-4603.2837;0.0;0.0;1838.2656
0.97;0.49851653;-0.45646277;1022.5283;-7168.5615;-6146.033;-4562.356;0.0;0.0;1838.2656
0.975;0.4984374;-0.4489244;1022.2651;-7163.765;-6141.5;-4520.257;0.0;0.0;1838.2656
0.98;0.49840385;-0.44123968;1022.1996;-7158.9224;-6136.7227;-4477.7466;0.0;0.0;1838.2656
0.985;0.49842268;-0.4337819;1022.35925;-7154.337;-6131.9775;-4436.9375;0.0;0.0;1838.2656
0.99;0.4985004;-0.42712888;1022.7859;-7150.502;-6127.716;-4401.101;0.0;0.0;1838.2656
0.995;0.49864933;-0.42131767;1023.5246;-7147.095;-6123.571;-4370.5303;0.0;0.0;1838.2656
1.0;0.4988762;-0.4169702;1024.5568;-7144.93;-6120.3735;-4348.6196;0.0;0.0;1838.2656
1.005;0.49915987;-0.41425133;1025.7817;-7143.714;-6117.932;-4336.075;0.0;0.0;1838.2656
1.01;0.49947003;-0.41342488;1027.0662;-7143.903;-6116.837;-4334.0864;0.0;0.0;1838.2656
1.015;0.49977186;-0.41424796;1028.272;-7145.0093;-6116.7373;-4341.037;0.0;0.0;1838.2656
1.02;0.50003594;-0.41690356;1029.3018;-7147.3164;-6118.0146;-4357.742;0.0;0.0;1838.2656
1.025;0.5002476;-0.4210428;1030.1152;-7150.7705;-6120.6553;-4382.196;0.0;0.0;1838.2656
1.03;0.5004048;-0.4262068;1030.7181;-7154.675;-6123.9565;-4411.8804;0.0;0.0;1838.2656
1.035;0.50051427;-0.43200397;1031.1244;-7158.7197;-6127.595;-4444.663;0.0;0.0;1838.2656
1.04;0.5005766;-0.4385541;1031.3505;-7163.257;-6131.9062;-4481.238;0.0;0.0;1838.2656
1.045;0.5006;-0.44539502;1031.4215;-7167.8276;-6136.4062;-4519.106;0.0;0.0;1838.2656
1.05;0.5005896;-0.4522022;1031.3657;-7172.168;-6140.8022;-4556.5347;0.0;0.0;1838.2656
1.055;0.500554;-0.45917434;1031.2039;-7176.55;-6145.3457;-4594.661;0.0;0.0;1838.2656
1.06;0.5004949;-0.4658626;1030.9702;-7180.711;-6149.7407;-4631.078;0.0;0.0;1838.2656
1.065;0.5004276;-0.47233006;1030.7047;-7184.6533;-6153.9487;-4666.214;0.0;0.0;1838.2656
1.07;0.500356;-0.47848052;1030.4265;-7188.1997;-6157.7734;-4699.5757;0.0;0.0;1838.2656
1.075;0.50028414;-0.48422357;1030.1477;-7191.3286;-6161.1807;-4730.69;0.0;0.0;1838.2656
1.08;0.50021327;-0.48972973;1029.8689;-7194.3555;-6164.4863;-4760.4976;0.0;0.0;1838.2656
1.085;0.50014156;-0.495103;1029.5812;-7197.4424;-6167.8613;-4789.5547;0.0;0.0;1838.2656
1.09;0.5000668;-0.4998811;1029.2828;-7199.9316;-6170.649;-4815.308;0.0;0.0;1838.2656
1.095;0.49999163;-0.5042154;1028.9977;-7201.9316;-6172.934;-4838.641;0.0;0.0;1838.2656
1.1;0.49992627;-0.50831467;1028.7864;-7204.009;-6175.2227;-4860.8247;0.0;0.0;1838.2656
1.105;0.49988955;-0.5121765;1028.7134;-7205.794;-6177.0806;-4881.976;0.0;0.0;1838.2656
1.11;0.49989104;-0.5161425;1028.7916;-7208.0547;-6179.263;-4904.0044;0.0;0.0;1838.2656
1.115;0.49992388;-0.5202143;1028.9626;-7210.4355;-6181.4727;-4926.802;0.0;0.0;1838.2656
1.12;0.49996328;-0.5242156;1029.1182;-7212.6914;-6183.573;-4949.1787;0.0;0.0;1838.2656
1.125;0.49998263;-0.52810895;1029.1578;-7215.0103;-6185.8525;-4970.7295;0.0;0.0;1838.2656
1.13;0.49996263;-0.5318559;1029.0244;-7217.2676;-6188.243;-4991.126;0.0;0.0;1838.2656
1.135;0.49989793;-0.53515977;1028.7125;-7219.4062;-6190.694;-5008.7227;0.0;0.0;1838.2656
1.14;0.49979353;-0.5374871;1028.2507;-7220.631;-6192.38;-5020.6333;0.0;0.0;1838.2656
1.145;0.49965936;-0.5391385;1027.6772;-7221.6143;-6193.937;-5028.5938;0.0;0.0;1838.2656
