time;temperature;pressure;kinetic_energy;potential_energy;total_energy;virial;msd;diffusion;volume
2715.005;0.2147214;-0.47187313;442.12265;-9431.775;-8989.652;-3486.5298;0.0;0.0;1838.2656
2715.01;0.21475697;-0.47487107;442.2286;-9433.621;-8991.393;-3503.2747;0.0;0.0;1838.2656
2715.015;0.21476175;-0.4777321;442.2095;-9435.035;-8992.825;-3519.0144;0.0;0.0;1838.2656
2715.02;0.21473692;-0.4807559;442.07397;-9436.723;-8994.648;-3535.419;0.0;0.0;1838.2656
2715.025;0.21468642;-0.48343727;441.84283;-9438.152;-8996.31;-3549.744;0.0;0.0;1838.2656
2715.03;0.21461718;-0.48568997;441.55334;-9439.059;-8997.505;-3561.5881;0.0;0.0;1838.2656
2715.035;0.21454065;-0.48775935;441.24707;-9440.159;-8998.912;-3572.388;0.0;0.0;1838.2656
2715.04;0.21446538;-0.48937413;440.95776;-9440.8125;-8999.8545;-3580.7146;0.0;0.0;1838.2656
2715.045;0.21439877;-0.49045274;440.71173;-9441.09;-9000.378;-3586.1707;0.0;0.0;1838.2656
2715.05;0.2143458;-0.49118903;440.52493;-9440.997;-9000.472;-3589.8577;0.0;0.0;1838.2656
2715.055;0.2143083;-0.4916664;440.40076;-9440.873;-9000.473;-3592.2417;0.0;0.0;1838.2656
2715.06;0.2142856;-0.49231687;440.32922;-9441.148;-9000.819;-3595.686;0.0;0.0;1838.2656
2715.065;0.21427292;-0.4925702;440.29355;-9441.023;-9000.7295;-3597.0117;0.0;0.0;1838.2656
2715.07;0.21426702;-0.49296904;440.28033;-9441.1875;-9000.907;-3599.1848;0.0;0.0;1838.2656
2715.075;0.21426463;-0.49318972;440.27167;-9441.195;-9000.924;-3600.3845;0.0;0.0;1838.2656
2715.08;0.21426052;-0.49308506;440.26187;-9440.779;-9000.518;-3599.7878;0.0;0.0;1838.2656
2715.085;0.21425748;-0.49306682;440.25232;-9440.504;-9000.252;-3599.668;0.0;0.0;1838.2656
2715.09;0.21425316;-0.4930706;440.2308;-9440.442;-9000.212;-3599.6458;0.0;0.0;1838.2656
2715.095;0.2142444;-0.4929183;440.1945;-9440.15;-8999.956;-3598.7332;0.0;0.0;1838.2656
2715.1;0.21423267;-0.49250937;440.14053;-9439.554;-8999.413;-3596.37;0.0;0.0;1838.2656
2715.105;0.21421522;-0.49223214;440.06445;-9439.4;-8999.336;-3594.6892;0.0;0.0;1838.2656
2715.11;0.21419282;-0.4917955;439.96136;-9439.064;-8999.104;-3592.075;0.0;0.0;1838.2656
2715.115;0.21416257;-0.49109888;439.82495;-9438.465;-8998.64;-3587.9604;0.0;0.0;1838.2656
2715.12;0.2141245;-0.49010518;439.66534;-9437.629;-8997.964;-3582.1614;0.0;0.0;1838.2656
2715.125;0.21408387;-0.48904642;439.49536;-9436.874;-8997.379;-3575.9824;0.0;0.0;1838.2656
2715.13;0.21404164;-0.48776418;439.32486;-9435.869;-8996.544;-3568.57;0.0;0.0;1838.2656
2715.135;0.2140018;-0.4862421;439.17157;-9434.66;-8995.488;-3559.8694;0.0;0.0;1838.2656
2715.14;0.21396877;-0.4845955;439.0505;-9433.41;-8994.359;-3550.5469;0.0;0.0;1838.2656
2715.145;0.2139453;-0.48300213;438.96558;-9432.307;-8993.341;-3541.5898;0.0;0.0;1838.2656
2715.15;0.21393006;-0.48130864;438.91937;-9431.004;-8992.085;-3532.1582;0.0;0.0;1838.2656
2715.155;0.21392553;-0.4796719;438.91653;-9429.843;-8990.926;-3523.1262;0.0;0.0;1838.2656
2715.16;0.2139314;-0.47811618;438.9574;-9428.6875;-8989.73;-3514.6284;0.0;0.0;1838.2656
2715.165;0.21394803;-0.47674188;439.0418;-9427.719;-8988.677;-3507.2183;0.0;0.0;1838.2656
2715.17;0.21397479;-0.47530425;439.16986;-9426.505;-8987.335;-3499.5461;0.0;0.0;1838.2656
2715.175;0.21401219;-0.4741797;439.34128;-9425.502;-8986.161;-3493.6873;0.0;0.0;1838.2656
2715.18;0.21405931;-0.47328848;439.54407;-9424.623;-8985.079;-3489.178;0.0;0.0;1838.2656
2715.185;0.21411145;-0.47291222;439.76837;-9424.335;-8984.566;-3487.5515;0.0;0.0;1838.2656
2715.19;0.2141682;-0.47256568;440.00677;-9423.732;-8983.726;-3486.1174;0.0;0.0;1838.2656
2715.195;0.21422647;-0.47279695;440.2547;-9423.816;-8983.562;-3487.8884;0.0;0.0;1838.2656
2715.2;0.21428749;-0.47331068;440.50766;-9424.18;-8983.672;-3491.2275;0.0;0.0;1838.2656
2715.205;0.21434762;-0.4740445;440.76105;-9424.461;-8983.7;-3495.7812;0.0;0.0;1838.2656
2715.21;0.21440832;-0.47537923;441.0145;-9425.55;-8984.535;-3503.6487;0.0;0.0;1838.2656
2715.215;0.21446778;-0.47668484;441.25995;-9426.355;-8985.096;-3511.3398;0.0;0.0;1838.2656
2715.22;0.21452369;-0.4782999;441.48456;-9427.509;-8986.024;-3520.6958;0.0;0.0;1838.2656
2715.225;0.21457194;-0.48030642;441.6757;-9428.989;-8987.313;-3532.1436;0.0;0.0;1838.2656
2715.23;0.2146103;-0.4823867;441.81964;-9430.514;-8988.694;-3543.904;0.0;0.0;1838.2656
2715.235;0.2146347;-0.48448247;441.90118;-9432.119;-8990.218;-3555.6248;0.0;0.0;1838.2656
2715.24;0.21464194;-0.48636436;441.90967;-9433.407;-8991.498;-3566.02;0.0;0.0;1838.2656
2715.245;0.2146306;-0.48832554;441.8405;-9434.912;-8993.071;-3576.6973;0.0;0.0;1838.2656
2715.25;0.21460009;-0.49000108;441.69348;-9436.268;-8994.574;-3585.6433;0.0;0.0;1838.2656
2715.255;0.21455109;-0.49138266;441.472;-9437.505;-8996.033;-3592.8196;0.0;0.0;1838.2656
2715.26;0.21448496;-0.49236456;441.1824;-9438.492;-8997.31;-3597.6553;0.0;0.0;1838.2656
2715.265;0.21440363;-0.49284953;440.83337;-9439.173;-8998.34;-3599.6318;0.0;0.0;1838.2656
2715.27;0.21430995;-0.49268582;440.44238;-9439.404;-8998.962;-3597.947;0.0;0.0;1838.2656
2715.275;0.2142096;-0.49199465;440.03058;-9439.242;-8999.212;-3593.3118;0.0;0.0;1838.2656
2715.28;0.21410738;-0.4907921;439.61722;-9438.908;-8999.291;-3585.8533;0.0;0.0;1838.2656
2715.285;0.21400806;-0.48880538;439.22464;-9437.883;-8998.658;-3574.1118;0.0;0.0;1838.2656
2715.29;0.21391729;-0.48649302;438.86823;-9436.816;-8997.948;-3560.6467;0.0;0.0;1838.2656
2715.295;0.21383676;-0.48355696;438.5598;-9435.227;-8996.667;-3543.8381;0.0;0.0;1838.2656
2715.3;0.21377018;-0.4803619;438.30533;-9433.456;-8995.15;-3525.709;0.0;0.0;1838.2656
2715.305;0.21371652;-0.47668022;438.1076;-9431.213;-8993.105;-3505.0098;0.0;0.0;1838.2656
2715.31;0.21367846;-0.47294116;437.97073;-9429.114;-8991.144;-3484.116;0.0;0.0;1838.2656
2715.315;0.21365508;-0.46923837;437.89972;-9427.128;-8989.229;-3463.5537;0.0;0.0;1838.2656
2715.32;0.21364984;-0.46538413;437.9053;-9424.777;-8986.872;-3442.3096;0.0;0.0;1838.2656
2715.325;0.21366449;-0.46183908;438.00037;-9422.754;-8984.754;-3422.9495;0.0;0.0;1838.2656
2715.33;0.21370307;-0.4584043;438.1928;-9420.654;-8982.462;-3404.392;0.0;0.0;1838.2656
2715.335;0.21376507;-0.4556455;438.48816;-9419.223;-8980.734;-3389.7688;0.0;0.0;1838.2656
2715.34;0.21385305;-0.4533892;438.88553;-9417.951;-8979.065;-3378.1204;0.0;0.0;1838.2656
2715.345;0.21396302;-0.45181993;439.36707;-9417.189;-8977.822;-3370.4292;0.0;0.0;1838.2656
2715.35;0.21408981;-0.45104972;439.9061;-9416.729;-8976.822;-3367.2598;0.0;0.0;1838.2656
2715.355;0.21422468;-0.45116672;440.4679;-9417.035;-8976.567;-3369.0286;0.0;0.0;1838.2656
2715.36;0.21435945;-0.45224664;441.0171;-9417.988;-8976.971;-3376.0825;0.0;0.0;1838.2656
2715.365;0.21448524;-0.454057;441.51184;-9419.433;-8977.921;-3387.056;0.0;0.0;1838.2656
2715.37;0.21459085;-0.4565448;441.91693;-9421.262;-8979.345;-3401.5854;0.0;0.0;1838.2656
2715.375;0.2146712;-0.4596162;442.20697;-9423.645;-8981.4375;-3419.104;0.0;0.0;1838.2656
2715.38;0.21471995;-0.46300253;442.3725;-9426.064;-8983.692;-3438.1099;0.0;0.0;1838.2656
2715.385;0.21473989;-0.46640667;442.42206;-9428.455;-8986.033;-3456.9822;0.0;0.0;1838.2656
2715.39;0.21473318;-0.4699281;442.36636;-9430.889;-8988.522;-3476.2908;0.0;0.0;1838.2656
2715.395;0.21470326;-0.47319973;442.22833;-9433.199;-8990.971;-3494.0571;0.0;0.0;1838.2656
2715.4;0.21465825;-0.47614616;442.0343;-9435.08;-8993.046;-3509.918;0.0;0.0;1838.2656
2715.405;0.21460278;-0.47869626;441.80737;-9436.67;-8994.862;-3523.5273;0.0;0.0;1838.2656
2715.41;0.21454294;-0.48097044;441.5617;-9438.173;-8996.611;-3535.578;0.0;0.0;1838.2656
2715.415;0.21447937;-0.4828407;441.30502;-9439.473;-8998.168;-3545.3784;0.0;0.0;1838.2656
2715.42;0.21441491;-0.4842982;441.04333;-9440.57;-8999.527;-3552.8928;0.0;0.0;1838.2656
2715.425;0.21434945;-0.48518112;440.78012;-9441.098;-9000.317;-3557.2356;0.0;0.0;1838.2656
2715.43;0.21428485;-0.48591417;440.5175;-9441.774;-9001.257;-3560.753;0.0;0.0;1838.2656
2715.435;0.21422033;-0.48604;440.25952;-9441.94;-9001.681;-3560.931;0.0;0.0;1838.2656
2715.44;0.21415883;-0.4858622;440.0169;-9442.036;-9002.02;-3559.465;0.0;0.0;1838.2656
2715.445;0.2141027;-0.4852488;439.80096;-9441.723;-9001.922;-3555.6504;0.0;0.0;1838.2656
2715.45;0.21405509;-0.48449126;439.62607;-9441.572;-9001.946;-3551.123;0.0;0.0;1838.2656
2715.455;0.21401966;-0.48342016;439.50317;-9441.07;-9001.567;-3544.9705;0.0;0.0;1838.2656
2715.46;0.21399777;-0.48205245;439.4358;-9440.338;-9000.902;-3537.293;0.0;0.0;1838.2656
2715.465;0.21398953;-0.4806693;439.4229;-9439.621;-9000.198;-3529.6394;0.0;0.0;1838.2656
2715.47;0.21399388;-0.47923476;439.46375;-9438.844;-8999.38;-3521.8098;0.0;0.0;1838.2656
2715.475;0.21401131;-0.4779214;439.55;-9438.28;-8998.73;-3514.7393;0.0;0.0;1838.2656
2715.48;0.2140369;-0.47682452;439.6643;-9437.891;-8998.227;-3508.919;0.0;0.0;1838.2656
2715.485;0.21406694;-0.47612366;439.79144;-9437.984;-8998.193;-3505.308;0.0;0.0;1838.2656
2715.49;0.21409774;-0.47541103;439.91748;-9437.916;-8997.998;-3501.6301;0.0;0.0;1838.2656
2715.495;0.21412626;-0.47479844;440.03125;-9437.738;-8997.707;-3498.4795;0.0;0.0;1838.2656
2715.5;0.21415047;-0.47429013;440.12167;-9437.605;-8997.483;-3495.857;0.0;0.0;1838.2656
2715.505;0.21416718;-0.47384468;440.18292;-9437.442;-8997.26;-3493.523;0.0;0.0;1838.2656
2715.51;0.2141769;-0.47374013;440.21927;-9437.714;-8997.494;-3493.0193;0.0;0.0;1838.2656
2715.515;0.21418136;-0.473771;440.23145;-9438.2;-8997.969;-3493.2139;0.0;0.0;1838.2656
2715.52;0.2141795;-0.47369075;440.2193;-9438.334;-8998.114;-3492.7468;0.0;0.0;1838.2656
2715.525;0.21417208;-0.473677;440.1861;-9438.596;-8998.409;-3492.6047;0.0;0.0;1838.2656
2715.53;0.21416014;-0.47364393;440.1407;-9438.859;-8998.719;-3492.3313;0.0;0.0;1838.2656
2715.535;0.21414697;-0.47358775;440.08594;-9439.041;-8998.955;-3491.912;0.0;0.0;1838.2656
2715.54;0.2141307;-0.47352335;440.02173;-9439.234;-8999.213;-3491.4287;0.0;0.0;1838.2656
2715.545;0.21411327;-0.47314322;439.9572;-9438.963;-8999.006;-3489.2031;0.0;0.0;1838.2656
2715.55;0.21409732;-0.47288907;439.90015;-9438.895;-8998.994;-3487.6875;0.0;0.0;1838.2656
2715.555;0.21408395;-0.472622;439.8549;-9438.747;-8998.893;-3486.1243;0.0;0.0;1838.2656
2715.56;0.21407396;-0.4723116;439.82544;-9438.635;-8998.81;-3484.3533;0.0;0.0;1838.2656
2715.565;0.21406831;-0.47206095;439.8117;-9438.481;-8998.67;-3482.9436;0.0;0.0;1838.2656
2715.57;0.21406552;-0.47181496;439.8062;-9438.393;-8998.586;-3481.5762;0.0;0.0;1838.2656
2715.575;0.21406356;-0.47162887;439.7984;-9438.219;-8998.42;-3480.5342;0.0;0.0;1838.2656
2715.58;0.21405914;-0.4714958;439.77466;-9438.076;-8998.302;-3479.753;0.0;0.0;1838.2656
2715.585;0.21404931;-0.47110403;439.7323;-9437.449;-8997.717;-3477.5076;0.0;0.0;1838.2656
2715.59;0.21403609;-0.47099453;439.67816;-9437.266;-8997.588;-3476.7954;0.0;0.0;1838.2656
2715.595;0.21402122;-0.47086266;439.61682;-9437.092;-8997.475;-3475.9456;0.0;0.0;1838.2656
2715.6;0.2140053;-0.47057736;439.56448;-9436.484;-8996.92;-3474.2676;0.0;0.0;1838.2656
2715.605;0.21399564;-0.47053835;439.53943;-9436.399;-8996.86;-3474.0022;0.0;0.0;1838.2656
2715.61;0.21399362;-0.47055373;439.5517;-9436.152;-8996.601;-3474.1116;0.0;0.0;1838.2656
2715.615;0.21400234;-0.47045964;439.60397;-9435.667;-8996.063;-3473.6973;0.0;0.0;1838.2656
2715.62;0.21401945;-0.47059667;439.69016;-9435.348;-8995.657;-3474.6255;0.0;0.0;1838.2656
2715.625;0.2140441;-0.4708042;439.8037;-9434.977;-8995.173;-3475.997;0.0;0.0;1838.2656
2715.63;0.21407363;-0.47133276;439.93237;-9434.944;-8995.012;-3479.1692;0.0;0.0;1838.2656
2715.635;0.2141049;-0.4720704;440.06042;-9434.923;-8994.862;-3483.4932;0.0;0.0;1838.2656
2715.64;0.21413352;-0.47313818;440.1839;-9435.318;-8995.135;-3489.629;0.0;0.0;1838.2656
2715.645;0.21416226;-0.47441253;440.30365;-9435.709;-8995.405;-3496.896;0.0;0.0;1838.2656
2715.65;0.21418884;-0.47576618;440.41943;-9436.101;-8995.682;-3504.5928;0.0;0.0;1838.2656
2715.655;0.21421565;-0.47745413;440.53714;-9436.767;-8996.2295;-3514.1367;0.0;0.0;1838.2656
2715.66;0.21424298;-0.4793874;440.6588;-9437.723;-8997.063;-3525.0417;0.0;0.0;1838.2656
2715.665;0.21427155;-0.48128533;440.79117;-9438.326;-8997.535;-3535.7732;0.0;0.0;1838.2656
2715.67;0.21430346;-0.48334652;440.93143;-9439.111;-8998.18;-3547.421;0.0;0.0;1838.2656
2715.675;0.21433513;-0.48577276;441.0619;-9440.335;-8999.273;-3561.0618;0.0;0.0;1838.2656
2715.68;0.21436125;-0.48837802;441.16888;-9441.743;-9000.574;-3575.6433;0.0;0.0;1838.2656
2715.685;0.21438076;-0.49096888;441.24265;-9443.134;-9001.892;-3590.0789;0.0;0.0;1838.2656
2715.69;0.21439005;-0.49335155;441.2701;-9444.193;-9002.923;-3603.274;0.0;0.0;1838.2656
2715.695;0.21438663;-0.49581212;441.24432;-9445.436;-9004.191;-3616.7917;0.0;0.0;1838.2656
2715.7;0.21436988;-0.4982865;441.16666;-9446.996;-9005.829;-3630.282;0.0;0.0;1838.2656
2715.705;0.21434145;-0.5002759;441.03397;-9448.058;-9007.023;-3640.988;0.0;0.0;1838.2656
2715.71;0.21429844;-0.50217366;440.84738;-9449.383;-9008.535;-3651.0806;0.0;0.0;1838.2656
2715.715;0.21424451;-0.5036035;440.61935;-9450.258;-9009.639;-3658.5098;0.0;0.0;1838.2656
2715.72;0.21418218;-0.5045652;440.3592;-9451.004;-9010.645;-3663.293;0.0;0.0;1838.2656
2715.725;0.2141139;-0.5051185;440.07703;-9451.523;-9011.446;-3665.7798;0.0;0.0;1838.2656
2715.73;0.21404202;-0.5050838;439.7912;-9451.684;-9011.893;-3665.017;0.0;0.0;1838.2656
2715.735;0.21397331;-0.50441414;439.5182;-9451.317;-9011.799;-3660.7778;0.0;0.0;1838.2656
2715.74;0.213909;-0.50320715;439.27264;-9450.545;-9011.272;-3653.6306;0.0;0.0;1838.2656
2715.745;0.21385461;-0.50173354;439.06702;-9449.832;-9010.765;-3645.0925;0.0;0.0;1838.2656
2715.75;0.21381038;-0.49998403;438.90344;-9448.984;-9010.081;-3635.1172;0.0;0.0;1838.2656
2715.755;0.21377654;-0.49804837;438.77945;-9448.202;-9009.423;-3624.1943;0.0;0.0;1838.2656
2715.76;0.21375144;-0.49582228;438.68506;-9447.296;-9008.611;-3611.7292;0.0;0.0;1838.2656
2715.765;0.2137318;-0.49363247;438.60825;-9446.451;-9007.843;-3599.4993;0.0;0.0;1838.2656
2715.77;0.21371509;-0.4912572;438.53876;-9445.548;-9007.009;-3586.2612;0.0;0.0;1838.2656
2715.775;0.21369918;-0.4886746;438.47076;-9444.36;-9005.89;-3571.8828;0.0;0.0;1838.2656
2715.78;0.21368358;-0.48588544;438.40866;-9442.87;-9004.462;-3556.377;0.0;0.0;1838.2656
2715.785;0.21367128;-0.4829405;438.3649;-9441.238;-9002.873;-3540.0486;0.0;0.0;1838.2656
2715.79;0.21366566;-0.47999787;438.35254;-9439.479;-9001.126;-3523.796;0.0;0.0;1838.2656
2715.795;0.21366951;-0.47711182;438.39136;-9437.619;-8999.228;-3507.9575;0.0;0.0;1838.2656
2715.8;0.21368945;-0.4746993;438.4946;-9436.528;-8998.034;-3494.8594;0.0;0.0;1838.2656
2715.805;0.21372475;-0.47247493;438.66705;-9435.48;-8996.813;-3482.9373;0.0;0.0;1838.2656
2715.81;0.21377788;-0.47083172;438.90637;-9435.007;-8996.101;-3474.354;0.0;0.0;1838.2656
2715.815;0.21384446;-0.46923634;439.19403;-9434.227;-8995.032;-3466.131;0.0;0.0;1838.2656
2715.82;0.21391948;-0.46825406;439.50714;-9434.002;-8994.495;-3461.3403;0.0;0.0;1838.2656
2715.825;0.21399628;-0.46807227;439.8227;-9434.698;-8994.876;-3460.9688;0.0;0.0;1838.2656
2715.83;0.21407025;-0.46791473;440.11005;-9435.119;-8995.009;-3460.6748;0.0;0.0;1838.2656
2715.835;0.21413122;-0.46821374;440.3376;-9435.897;-8995.56;-3462.7788;0.0;0.0;1838.2656
2715.84;0.21417442;-0.46867138;440.48758;-9436.598;-8996.11;-3465.6025;0.0;0.0;1838.2656
2715.845;0.21419632;-0.46937865;440.5423;-9437.789;-8997.247;-3469.6125;0.0;0.0;1838.2656
2715.85;0.21419288;-0.46986514;440.49283;-9438.549;-8998.056;-3472.1965;0.0;0.0;1838.2656
2715.855;0.2141643;-0.47015256;440.34897;-9439.107;-8998.759;-3473.4937;0.0;0.0;1838.2656
2715.86;0.2141162;-0.47029668;440.13034;-9439.708;-8999.578;-3473.8513;0.0;0.0;1838.2656
2715.865;0.21405311;-0.4700823;439.86066;-9439.956;-9000.096;-3472.1296;0.0;0.0;1838.2656
2715.87;0.21398266;-0.46938983;439.57812;-9439.928;-9000.35;-3467.7458;0.0;0.0;1838.2656
2715.875;0.2139158;-0.46831426;439.32272;-9439.448;-9000.126;-3461.3035;0.0;0.0;1838.2656
2715.88;0.21386108;-0.46687242;439.1327;-9438.711;-8999.578;-3452.972;0.0;0.0;1838.2656
2715.885;0.21382801;-0.46538553;439.04266;-9438.117;-8999.074;-3444.592;0.0;0.0;1838.2656
2715.89;0.21382324;-0.46382326;439.07318;-9437.322;-8998.249;-3436.0374;0.0;0.0;1838.2656
2715.895;0.21384904;-0.46241358;439.22778;-9436.754;-8997.526;-3428.5725;0.0;0.0;1838.2656
2715.9;0.21390368;-0.4612826;439.49216;-9436.395;-8996.902;-3422.8643;0.0;0.0;1838.2656
2715.905;0.21398072;-0.460628;439.83292;-9436.363;-8996.53;-3419.9358;0.0;0.0;1838.2656
2715.91;0.21406952;-0.4604298;440.2033;-9436.791;-8996.588;-3419.5835;0.0;0.0;1838.2656
2715.915;0.21415773;-0.4607597;440.55096;-9437.617;-8997.066;-3422.0981;0.0;0.0;1838.2656
2715.92;0.21423215;-0.46151492;440.82684;-9438.652;-8997.825;-3426.8147;0.0;0.0;1838.2656
2715.925;0.21428302;-0.4625869;440.99844;-9439.961;-8998.963;-3433.0698;0.0;0.0;1838.2656
2715.93;0.21430549;-0.4637168;441.05148;-9441.176;-9000.124;-3439.407;0.0;0.0;1838.2656
2715.935;0.21429867;-0.46494707;440.98828;-9442.529;-9001.541;-3446.0652;0.0;0.0;1838.2656
2715.94;0.21426563;-0.46589398;440.83112;-9443.558;-9002.727;-3450.973;0.0;0.0;1838.2656
2715.945;0.21421461;-0.46663925;440.6134;-9444.295;-9003.682;-3454.6475;0.0;0.0;1838.2656
2715.95;0.21415374;-0.46716103;440.36;-9445.018;-9004.657;-3457.018;0.0;0.0;1838.2656
2715.955;0.21408677;-0.46749994;440.0943;-9445.645;-9005.55;-3458.3557;0.0;0.0;1838.2656
2715.96;0.21402106;-0.46726942;439.83112;-9445.705;-9005.874;-3456.5583;0.0;0.0;1838.2656
2715.965;0.21395606;-0.4667027;439.57562;-9445.415;-9005.84;-3452.9219;0.0;0.0;1838.2656
2715.97;0.21389471;-0.46596748;439.33115;-9445.242;-9005.911;-3448.3782;0.0;0.0;1838.2656
2715.975;0.21383579;-0.46499357;439.10083;-9444.827;-9005.727;-3442.5469;0.0;0.0;1838.2656
2715.98;0.2137823;-0.4637355;438.8924;-9444.285;-9005.393;-3435.192;0.0;0.0;1838.2656
2715.985;0.21373512;-0.46210125;438.71747;-9443.408;-9004.69;-3425.8296;0.0;0.0;1838.2656
2715.99;0.21369913;-0.46045458;438.594;-9442.604;-9004.01;-3416.5015;0.0;0.0;1838.2656
2715.995;0.21367787;-0.45858163;438.53345;-9441.518;-9002.984;-3406.0513;0.0;0.0;1838.2656
2716.0;0.21367303;-0.45681852;438.54074;-9440.75;-9002.209;-3396.3428;0.0;0.0;1838.2656
2716.005;0.21368456;-0.45499477;438.61334;-9439.865;-9001.252;-3386.4304;0.0;0.0;1838.2656
2716.01;0.21371101;-0.4533596;438.73953;-9439.08;-9000.341;-3377.6653;0.0;0.0;1838.2656
2716.015;0.21374764;-0.4519088;438.90063;-9438.417;-8999.517;-3369.9866;0.0;0.0;1838.2656
2716.02;0.21379004;-0.45059443;439.0811;-9437.906;-8998.825;-3363.0989;0.0;0.0;1838.2656
2716.025;0.21383514;-0.44946226;439.26776;-9437.395;-8998.127;-3357.2285;0.0;0.0;1838.2656
2716.03;0.21387973;-0.44858557;439.44812;-9437.151;-8997.703;-3352.7546;0.0;0.0;1838.2656
2716.035;0.21392085;-0.44806919;439.61218;-9437.25;-8997.638;-3350.2349;0.0;0.0;1838.2656
2716.04;0.21395685;-0.44782555;439.75183;-9437.664;-8997.912;-3349.1707;0.0;0.0;1838.2656
2716.045;0.21398547;-0.44763073;439.85956;-9437.968;-8998.108;-3348.3118;0.0;0.0;1838.2656
2716.05;0.21400541;-0.44771436;439.92673;-9438.846;-8998.919;-3348.9072;0.0;0.0;1838.2656
2716.055;0.21401422;-0.44764218;439.9497;-9439.227;-8999.277;-3348.5552;0.0;0.0;1838.2656
2716.06;0.2140126;-0.44762248;439.93378;-9439.631;-8999.697;-3348.4146;0.0;0.0;1838.2656
2716.065;0.2140029;-0.4475002;439.8864;-9439.898;-9000.012;-3347.6455;0.0;0.0;1838.2656
2716.07;0.21398686;-0.44736606;439.8258;-9440.324;-9000.498;-3346.7844;0.0;0.0;1838.2656
2716.075;0.21397164;-0.44724405;439.7766;-9440.691;-9000.915;-3346.0134;0.0;0.0;1838.2656
2716.08;0.21396194;-0.44713968;439.75256;-9441.152;-9001.399;-3345.3896;0.0;0.0;1838.2656
2716.085;0.21395954;-0.44686395;439.76416;-9441.164;-9001.4;-3343.8923;0.0;0.0;1838.2656
2716.09;0.21396737;-0.4467852;439.8219;-9441.412;-9001.59;-3343.5735;0.0;0.0;1838.2656
2716.095;0.21398744;-0.4471216;439.93237;-9442.214;-9002.281;-3345.6494;0.0;0.0;1838.2656
2716.1;0.21402062;-0.4474036;440.09583;-9442.532;-9002.437;-3347.5317;0.0;0.0;1838.2656
2716.105;0.2140659;-0.4479432;440.30872;-9443.048;-9002.739;-3350.933;0.0;0.0;1838.2656
2716.11;0.21412213;-0.4490372;440.56018;-9443.974;-9003.413;-3357.4692;0.0;0.0;1838.2656
2716.115;0.2141849;-0.45071805;440.83258;-9445.482;-9004.649;-3367.2837;0.0;0.0;1838.2656
