time;temperature;pressure;kinetic_energy;potential_energy;total_energy;virial;msd;diffusion;volume
1630.005;0.6496734;0.030021852;1337.1519;-6959.7803;-5622.6284;-2508.7393;0.0;0.0;1838.2656
1630.01;0.6495944;0.026614211;1336.6638;-6962.6084;-5625.9443;-2526.5557;0.0;0.0;1838.2656
1630.015;0.64939636;0.023950214;1335.766;-6964.7227;-5628.9565;-2539.4514;0.0;0.0;1838.2656
1630.02;0.64913446;0.02245118;1334.7216;-6966.0195;-5631.298;-2545.6294;0.0;0.0;1838.2656
1630.025;0.6488838;0.022020776;1333.8318;-6966.421;-5632.589;-2546.2234;0.0;0.0;1838.2656
1630.03;0.6487117;0.022444908;1333.3286;-6966.194;-5632.865;-2542.8782;0.0;0.0;1838.2656
1630.035;0.648658;0.023021385;1333.3242;-6965.7256;-5632.4014;-2539.6902;0.0;0.0;1838.2656
1630.04;0.6487285;0.02331564;1333.7965;-6965.427;-5631.6304;-2539.012;0.0;0.0;1838.2656
1630.045;0.64890087;0.022449216;1334.623;-6966.269;-5631.646;-2545.443;0.0;0.0;1838.2656
1630.05;0.6491338;0.020076122;1335.6372;-6968.3906;-5632.7534;-2560.5586;0.0;0.0;1838.2656
1630.055;0.6493869;0.016395098;1336.6663;-6971.423;-5634.757;-2582.917;0.0;0.0;1838.2656
1630.06;0.64961886;0.01146253;1337.5814;-6975.318;-5637.7363;-2611.9492;0.0;0.0;1838.2656
1630.065;0.649809;0.005063764;1338.2734;-6980.677;-5642.4033;-2648.6213;0.0;0.0;1838.2656
1630.07;0.6499241;-0.0017132533;1338.5994;-6985.872;-5647.2725;-2686.647;0.0;0.0;1838.2656
1630.075;0.64993;-0.008357396;1338.4441;-6990.835;-5652.3906;-2722.9775;0.0;0.0;1838.2656
1630.08;0.64981186;-0.014396748;1337.7903;-6995.05;-5657.26;-2754.9756;0.0;0.0;1838.2656
1630.085;0.6495843;-0.01945845;1336.7634;-6998.5967;-5661.833;-2780.8362;0.0;0.0;1838.2656
1630.09;0.64930093;-0.022770023;1335.6083;-7000.491;-5664.883;-2796.7886;0.0;0.0;1838.2656
1630.095;0.64902765;-0.02477937;1334.5867;-7001.5347;-5666.948;-2805.8264;0.0;0.0;1838.2656
1630.1;0.64882123;-0.025704723;1333.8898;-7001.7656;-5667.876;-2809.536;0.0;0.0;1838.2656
1630.105;0.6487097;-0.026068643;1333.5632;-7001.816;-5668.253;-2810.8896;0.0;0.0;1838.2656
1630.11;0.6486797;-0.025959475;1333.5273;-7001.3545;-5667.827;-2810.2158;0.0;0.0;1838.2656
1630.115;0.6487005;-0.026218394;1333.6289;-7001.7905;-5668.1616;-2811.847;0.0;0.0;1838.2656
1630.12;0.64872766;-0.026145173;1333.7031;-7001.7266;-5668.0234;-2811.5916;0.0;0.0;1838.2656
1630.125;0.6487292;-0.025994437;1333.6504;-7001.5117;-5667.8613;-2810.6548;0.0;0.0;1838.2656
1630.13;0.648693;-0.025743721;1333.457;-7001.521;-5668.064;-2808.8855;0.0;0.0;1838.2656
1630.135;0.64862853;-0.025163844;1333.1692;-7001.2344;-5668.0654;-2805.1118;0.0;0.0;1838.2656
1630.14;0.64855075;-0.023944005;1332.866;-7000.4336;-5667.5674;-2797.7783;0.0;0.0;1838.2656
1630.145;0.648484;-0.02272837;1332.6205;-6999.892;-5667.2715;-2790.5833;0.0;0.0;1838.2656
1630.15;0.6484363;-0.021116702;1332.4653;-6999.017;-5666.552;-2781.385;0.0;0.0;1838.2656
1630.155;0.64841306;-0.019349659;1332.375;-6997.879;-5665.504;-2771.4595;0.0;0.0;1838.2656
1630.16;0.6483941;-0.01753843;1332.2622;-6996.8364;-5664.574;-2761.2454;0.0;0.0;1838.2656
1630.165;0.6483572;-0.01561679;1332.051;-6995.7734;-5663.7227;-2750.2256;0.0;0.0;1838.2656
1630.17;0.64829075;-0.013158181;1331.7222;-6993.9688;-5662.2466;-2736.009;0.0;0.0;1838.2656
1630.175;0.64820117;-0.010198524;1331.342;-6991.6543;-5660.3125;-2718.9268;0.0;0.0;1838.2656
1630.18;0.648118;-0.006748362;1331.0408;-6988.737;-5657.6963;-2699.2974;0.0;0.0;1838.2656
1630.185;0.6480745;-0.0034084674;1330.9497;-6986.1885;-5655.239;-2680.6965;0.0;0.0;1838.2656
1630.19;0.64809704;-0.00047053004;1331.1416;-6984.211;-5653.0693;-2664.8782;0.0;0.0;1838.2656
1630.195;0.64818805;0.0019899418;1331.5704;-6982.615;-5651.045;-2652.1667;0.0;0.0;1838.2656
1630.2;0.64831686;0.0038980725;1332.0889;-6981.3887;-5649.3;-2642.6807;0.0;0.0;1838.2656
1630.205;0.6484393;0.005256017;1332.4976;-6980.379;-5647.8813;-2636.0093;0.0;0.0;1838.2656
1630.21;0.6485029;0.006273261;1332.6042;-6979.6562;-5647.052;-2630.6128;0.0;0.0;1838.2656
1630.215;0.64847106;0.00772323;1332.2788;-6978.201;-5645.9224;-2621.9656;0.0;0.0;1838.2656
1630.22;0.6483246;0.009687627;1331.5027;-6976.5127;-5645.01;-2609.58;0.0;0.0;1838.2656
1630.225;0.648081;0.012982109;1330.3887;-6973.297;-5642.908;-2589.1836;0.0;0.0;1838.2656
1630.23;0.6477834;0.017556634;1329.159;-6969.1484;-5639.9893;-2561.4968;0.0;0.0;1838.2656
1630.235;0.6475005;0.023509737;1328.1072;-6963.581;-5635.4736;-2526.563;0.0;0.0;1838.2656
1630.24;0.64730674;0.029794164;1327.5209;-6958.1006;-5630.5796;-2490.733;0.0;0.0;1838.2656
1630.245;0.6472633;0.03619625;1327.6248;-6952.372;-5624.747;-2455.6345;0.0;0.0;1838.2656
1630.25;0.64741063;0.04164644;1328.531;-6947.3457;-5618.8145;-2427.3904;0.0;0.0;1838.2656
1630.255;0.64775336;0.04495282;1330.1959;-6944.1436;-5613.9478;-2412.486;0.0;0.0;1838.2656
1630.26;0.648254;0.045505516;1332.4078;-6942.986;-5610.578;-2413.862;0.0;0.0;1838.2656
1630.265;0.6488357;0.042577896;1334.7842;-6944.7744;-5609.99;-2434.76;0.0;0.0;1838.2656
1630.27;0.64938563;0.037006795;1336.8679;-6948.175;-5611.3066;-2469.651;0.0;0.0;1838.2656
1630.275;0.64979845;0.029249292;1338.2897;-6953.1484;-5614.859;-2515.2754;0.0;0.0;1838.2656
1630.28;0.6500136;0.02005783;1338.8943;-6959.176;-5620.2812;-2567.1738;0.0;0.0;1838.2656
1630.285;0.65003014;0.011040741;1338.7576;-6964.4727;-5625.715;-2616.6277;0.0;0.0;1838.2656
1630.29;0.6498973;0.002486263;1338.1122;-6969.538;-5631.426;-2662.5132;0.0;0.0;1838.2656
1630.295;0.6496829;-0.004828547;1337.2523;-6973.389;-5636.1367;-2701.133;0.0;0.0;1838.2656
1630.3;0.6494609;-0.010937604;1336.4286;-6976.326;-5639.8975;-2733.1758;0.0;0.0;1838.2656
1630.305;0.6492746;-0.015945887;1335.783;-6978.6636;-5642.881;-2759.5042;0.0;0.0;1838.2656
1630.31;0.64914346;-0.020425625;1335.3247;-6981.0156;-5645.691;-2783.2925;0.0;0.0;1838.2656
1630.315;0.6490476;-0.02394381;1334.979;-6982.52;-5647.541;-2802.0032;0.0;0.0;1838.2656
1630.32;0.64896816;-0.02681275;1334.638;-6983.835;-5649.1973;-2817.1428;0.0;0.0;1838.2656
1630.325;0.64887166;-0.029022906;1334.1818;-6984.7197;-5650.538;-2828.419;0.0;0.0;1838.2656
1630.33;0.648735;-0.03026901;1333.544;-6984.887;-5651.3433;-2834.0154;0.0;0.0;1838.2656
1630.335;0.6485542;-0.030428374;1332.759;-6984.528;-5651.7686;-2833.3245;0.0;0.0;1838.2656
1630.34;0.6483545;-0.029554818;1331.9346;-6983.45;-5651.5156;-2826.858;0.0;0.0;1838.2656
1630.345;0.64816535;-0.027291048;1331.2324;-6981.2427;-5650.0103;-2812.9695;0.0;0.0;1838.2656
1630.35;0.6480353;-0.024449917;1330.8331;-6978.719;-5647.886;-2796.5027;0.0;0.0;1838.2656
1630.355;0.6479992;-0.021434046;1330.831;-6976.468;-5645.6367;-2779.8665;0.0;0.0;1838.2656
1630.36;0.64806366;-0.018790362;1331.238;-6974.637;-5643.3994;-2766.101;0.0;0.0;1838.2656
1630.365;0.64822114;-0.016854085;1331.9819;-6973.5415;-5641.5596;-2756.9106;0.0;0.0;1838.2656
1630.37;0.64844;-0.01627569;1332.9088;-6973.7373;-5640.8286;-2755.5747;0.0;0.0;1838.2656
1630.375;0.6486713;-0.016404215;1333.7922;-6974.141;-5640.3486;-2758.0503;0.0;0.0;1838.2656
1630.38;0.64885217;-0.01750827;1334.3628;-6975.4375;-5641.0747;-2765.28;0.0;0.0;1838.2656
1630.385;0.6489174;-0.018862596;1334.4039;-6976.655;-5642.251;-2772.8313;0.0;0.0;1838.2656
1630.39;0.6488372;-0.01984335;1333.8834;-6977.376;-5643.4927;-2777.199;0.0;0.0;1838.2656
1630.395;0.64863765;-0.019630034;1332.9663;-6976.9927;-5644.0264;-2774.1882;0.0;0.0;1838.2656
1630.4;0.6483819;-0.018364852;1331.953;-6975.589;-5643.6357;-2765.1843;0.0;0.0;1838.2656
1630.405;0.6481531;-0.015897242;1331.1542;-6973.1973;-5642.043;-2749.9785;0.0;0.0;1838.2656
1630.41;0.64801496;-0.01297501;1330.7876;-6970.6177;-5639.83;-2733.1296;0.0;0.0;1838.2656
1630.415;0.64800084;-0.010094585;1330.9124;-6968.2656;-5637.3535;-2717.4944;0.0;0.0;1838.2656
1630.42;0.6480973;-0.0076310528;1331.4141;-6966.1357;-5634.7217;-2704.9119;0.0;0.0;1838.2656
1630.425;0.648256;-0.0061927964;1332.0786;-6965.29;-5633.2114;-2698.3093;0.0;0.0;1838.2656
1630.43;0.6484198;-0.0054849526;1332.6826;-6964.769;-5632.0864;-2695.6135;0.0;0.0;1838.2656
1630.435;0.6485406;-0.0055732694;1333.0721;-6965.126;-5632.0537;-2696.8796;0.0;0.0;1838.2656
1630.44;0.6485973;-0.005609941;1333.1813;-6965.292;-5632.111;-2697.3003;0.0;0.0;1838.2656
1630.445;0.64858484;-0.005647467;1333.0317;-6965.2695;-5632.238;-2697.208;0.0;0.0;1838.2656
1630.45;0.6485213;-0.005296504;1332.7043;-6965.0454;-5632.341;-2694.618;0.0;0.0;1838.2656
1630.455;0.6484309;-0.0041344827;1332.3027;-6963.883;-5631.58;-2687.4062;0.0;0.0;1838.2656
1630.46;0.6483404;-0.0028006372;1331.9692;-6962.7686;-5630.7993;-2679.3833;0.0;0.0;1838.2656
1630.465;0.6482923;-0.001329175;1331.8749;-6961.8115;-5629.9365;-2671.0798;0.0;0.0;1838.2656
1630.47;0.648325;3.5158508e-05;1332.1484;-6960.957;-5628.8086;-2664.103;0.0;0.0;1838.2656
1630.475;0.6484568;0.0007953576;1332.8313;-6960.7676;-5627.9365;-2661.2764;0.0;0.0;1838.2656
1630.48;0.64868164;0.00056460174;1333.8372;-6961.3486;-5627.5117;-2664.5605;0.0;0.0;1838.2656
1630.485;0.648954;-0.0011603587;1334.9504;-6963.41;-5628.46;-2676.3;0.0;0.0;1838.2656
1630.49;0.6492118;-0.00363985;1335.9119;-6965.752;-5629.84;-2691.8967;0.0;0.0;1838.2656
1630.495;0.6493946;-0.007151633;1336.512;-6969.237;-5632.7246;-2712.4636;0.0;0.0;1838.2656
1630.5;0.64946765;-0.010553726;1336.6608;-6972.2725;-5635.612;-2731.5232;0.0;0.0;1838.2656
1630.505;0.64942724;-0.013820868;1336.3464;-6975.532;-5639.1855;-2748.912;0.0;0.0;1838.2656
1630.51;0.64927524;-0.01611767;1335.587;-6978.211;-5642.624;-2760.0598;0.0;0.0;1838.2656
1630.515;0.6490232;-0.016697906;1334.4519;-6979.2207;-5644.7686;-2760.9893;0.0;0.0;1838.2656
1630.52;0.6486957;-0.015411417;1333.0431;-6979.0835;-5646.0405;-2751.077;0.0;0.0;1838.2656
1630.525;0.6483207;-0.011888832;1331.4838;-6977.1123;-5645.6284;-2728.532;0.0;0.0;1838.2656
1630.53;0.6479323;-0.006327367;1329.9143;-6973.885;-5643.9707;-2694.7227;0.0;0.0;1838.2656
1630.535;0.64756507;0.00096461544;1328.4952;-6969.488;-5640.9927;-2651.671;0.0;0.0;1838.2656
1630.54;0.64726233;0.010097301;1327.3815;-6963.672;-5636.2905;-2599.0784;0.0;0.0;1838.2656
1630.545;0.64705503;0.019910349;1326.7043;-6957.7314;-5631.0273;-2543.6072;0.0;0.0;1838.2656
1630.55;0.6469733;0.030348575;1326.5865;-6951.0547;-5624.4683;-2485.807;0.0;0.0;1838.2656
1630.555;0.6470444;0.040132564;1327.1118;-6944.9014;-5617.7896;-2432.9006;0.0;0.0;1838.2656
1630.56;0.6472766;0.048342038;1328.3154;-6940.0645;-5611.749;-2390.0344;0.0;0.0;1838.2656
1630.565;0.64767146;0.05416431;1330.125;-6936.929;-5606.804;-2361.545;0.0;0.0;1838.2656
1630.57;0.6481837;0.056871902;1332.3433;-6936.246;-5603.903;-2351.0496;0.0;0.0;1838.2656
1630.575;0.6487572;0.05620303;1334.6956;-6937.9873;-5603.292;-2359.4429;0.0;0.0;1838.2656
1630.58;0.649312;0.052216567;1336.8794;-6942.0684;-5605.189;-2385.795;0.0;0.0;1838.2656
1630.585;0.6497842;0.045742523;1338.6497;-6947.445;-5608.795;-2425.0386;0.0;0.0;1838.2656
1630.59;0.6501241;0.037116036;1339.8342;-6954.2334;-5614.3994;-2474.981;0.0;0.0;1838.2656
1630.595;0.65030426;0.027159646;1340.3689;-6961.6626;-5621.294;-2530.9578;0.0;0.0;1838.2656
1630.6;0.65032786;0.016991505;1340.2866;-6968.935;-5628.6484;-2586.8687;0.0;0.0;1838.2656
1630.605;0.6502137;0.0073393825;1339.6968;-6975.397;-5635.7;-2638.9185;0.0;0.0;1838.2656
1630.61;0.6499994;-0.0013128385;1338.7455;-6980.902;-5642.1562;-2684.731;0.0;0.0;1838.2656
1630.615;0.64972;-0.008513061;1337.5879;-6985.2656;-5647.6777;-2722.1235;0.0;0.0;1838.2656
1630.62;0.64941716;-0.014467656;1336.3883;-6989.0635;-5652.6753;-2752.5627;0.0;0.0;1838.2656
1630.625;0.6491272;-0.01842736;1335.2797;-6990.8813;-5655.6016;-2772.1824;0.0;0.0;1838.2656
1630.63;0.6488755;-0.021057962;1334.3323;-6992.063;-5657.7305;-2784.795;0.0;0.0;1838.2656
1630.635;0.6486697;-0.022339255;1333.5763;-6992.364;-5658.7876;-2790.349;0.0;0.0;1838.2656
1630.64;0.6485143;-0.022897791;1333.0288;-6992.5557;-5659.527;-2792.3342;0.0;0.0;1838.2656
1630.645;0.64841235;-0.022542622;1332.6892;-6992.085;-5659.3955;-2789.6963;0.0;0.0;1838.2656
1630.65;0.6483585;-0.021766732;1332.5254;-6991.5527;-5659.0273;-2785.0898;0.0;0.0;1838.2656
1630.655;0.6483388;-0.020621631;1332.457;-6991.05;-5658.593;-2778.6382;0.0;0.0;1838.2656
1630.66;0.6483243;-0.019271335;1332.3403;-6990.51;-5658.1694;-2770.9583;0.0;0.0;1838.2656
1630.665;0.64827365;-0.017180037;1332.0215;-6989.3657;-5657.344;-2758.7874;0.0;0.0;1838.2656
1630.67;0.6481579;-0.014257925;1331.4194;-6987.5684;-5656.149;-2741.4685;0.0;0.0;1838.2656
1630.675;0.6479739;-0.010407978;1330.5867;-6985.1533;-5654.5664;-2718.5713;0.0;0.0;1838.2656
1630.68;0.64775753;-0.0054408256;1329.7054;-6982.116;-5652.4106;-2689.416;0.0;0.0;1838.2656
1630.685;0.6475645;0.00070995017;1329.0302;-6978.0156;-5648.9854;-2654.145;0.0;0.0;1838.2656
1630.69;0.6474587;0.0072083743;1328.7632;-6973.991;-5645.228;-2617.7737;0.0;0.0;1838.2656
1630.695;0.64746296;0.013932956;1328.9316;-6969.799;-5640.867;-2581.026;0.0;0.0;1838.2656
1630.7;0.6475582;0.02028944;1329.3765;-6965.922;-5636.5454;-2546.8608;0.0;0.0;1838.2656
1630.705;0.6476831;0.025886057;1329.8856;-6962.813;-5632.9272;-2517.015;0.0;0.0;1838.2656
1630.71;0.6478005;0.03101077;1330.3472;-6959.916;-5629.569;-2489.6763;0.0;0.0;1838.2656
1630.715;0.6478987;0.035369065;1330.7112;-6957.717;-5627.006;-2466.3691;0.0;0.0;1838.2656
1630.72;0.6479674;0.039482567;1330.9451;-6955.583;-5624.6377;-2444.1519;0.0;0.0;1838.2656
1630.725;0.6480022;0.043343425;1331.0078;-6953.491;-5622.4834;-2422.9854;0.0;0.0;1838.2656
1630.73;0.6479898;0.04741045;1330.8926;-6950.784;-5619.8916;-2400.3262;0.0;0.0;1838.2656
1630.735;0.6479436;0.051271893;1330.6794;-6948.4766;-5617.797;-2378.6047;0.0;0.0;1838.2656
1630.74;0.6478917;0.05533988;1330.4893;-6945.6406;-5615.1514;-2355.7903;0.0;0.0;1838.2656
1630.745;0.6478656;0.059144806;1330.4547;-6943.2383;-5612.7837;-2334.7378;0.0;0.0;1838.2656
1630.75;0.64789534;0.062495366;1330.6726;-6940.9316;-5610.259;-2316.696;0.0;0.0;1838.2656
1630.755;0.6479919;0.06508876;1331.1443;-6939.1816;-5608.037;-2303.3374;0.0;0.0;1838.2656
1630.76;0.64813924;0.0666355;1331.7721;-6938.0474;-5606.2754;-2296.063;0.0;0.0;1838.2656
1630.765;0.6483048;0.06727469;1332.4442;-6937.277;-5604.8325;-2293.882;0.0;0.0;1838.2656
1630.77;0.64846784;0.06654712;1333.0762;-6937.3125;-5604.2363;-2299.1584;0.0;0.0;1838.2656
1630.775;0.6486113;0.064782955;1333.6461;-6937.959;-5604.313;-2310.0273;0.0;0.0;1838.2656
1630.78;0.64874333;0.0618525;1334.178;-6939.203;-5605.0254;-2327.252;0.0;0.0;1838.2656
1630.785;0.6488693;0.058170754;1334.7041;-6940.5547;-5605.8506;-2348.6084;0.0;0.0;1838.2656
1630.79;0.6489984;0.05313421;1335.2568;-6942.9336;-5607.677;-2377.4893;0.0;0.0;1838.2656
1630.795;0.64913684;0.047122337;1335.8406;-6945.9336;-5610.093;-2411.811;0.0;0.0;1838.2656
1630.8;0.6492808;0.040019237;1336.4677;-6949.5723;-5613.1045;-2452.2373;0.0;0.0;1838.2656
1630.805;0.6494384;0.031635225;1337.1489;-6954.2305;-5617.0815;-2499.836;0.0;0.0;1838.2656
1630.81;0.6496039;0.02260374;1337.8303;-6959.117;-5621.287;-2551.0056;0.0;0.0;1838.2656
1630.815;0.64974946;0.01288612;1338.3401;-6964.283;-5625.9434;-2605.6157;0.0;0.0;1838.2656
1630.82;0.6498144;0.0027969575;1338.4418;-6969.6875;-5631.2456;-2661.459;0.0;0.0;1838.2656
1630.825;0.64975196;-0.007045122;1338.0139;-6975.0454;-5637.0312;-2714.8801;0.0;0.0;1838.2656
1630.83;0.64956343;-0.015754316;1337.166;-6979.4634;-5642.2974;-2761.2139;0.0;0.0;1838.2656
1630.835;0.6493102;-0.023036975;1336.1515;-6982.9175;-5646.766;-2799.3472;0.0;0.0;1838.2656
1630.84;0.64905334;-0.02879065;1335.1858;-6985.205;-5650.0195;-2829.1462;0.0;0.0;1838.2656
1630.845;0.64883214;-0.03318635;1334.3911;-6986.851;-5652.46;-2851.798;0.0;0.0;1838.2656
1630.85;0.6486616;-0.036286727;1333.7723;-6987.555;-5653.7827;-2867.6587;0.0;0.0;1838.2656
1630.855;0.64852625;-0.038582604;1333.2759;-6988.041;-5654.765;-2879.327;0.0;0.0;1838.2656
1630.86;0.6484146;-0.039879423;1332.8506;-6988.035;-5655.1846;-2885.6282;0.0;0.0;1838.2656
1630.865;0.64831567;-0.04034944;1332.4594;-6987.5225;-5655.063;-2887.4377;0.0;0.0;1838.2656
1630.87;0.64822346;-0.04009903;1332.1068;-6986.7715;-5654.6646;-2885.3516;0.0;0.0;1838.2656
1630.875;0.6481476;-0.039338842;1331.8225;-6985.866;-5654.044;-2880.5908;0.0;0.0;1838.2656
1630.88;0.64809215;-0.03821414;1331.6272;-6984.988;-5653.3604;-2873.9976;0.0;0.0;1838.2656
1630.885;0.648063;-0.03661755;1331.5427;-6983.813;-5652.2705;-2865.024;0.0;0.0;1838.2656
1630.89;0.6480626;-0.03477185;1331.5695;-6982.5586;-5650.9893;-2854.8987;0.0;0.0;1838.2656
1630.895;0.6480878;-0.03306022;1331.7009;-6981.5415;-5649.841;-2845.7222;0.0;0.0;1838.2656
1630.9;0.64813703;-0.031485297;1331.9137;-6980.597;-5648.6836;-2837.4624;0.0;0.0;1838.2656
1630.905;0.64820045;-0.03004186;1332.1908;-6979.7188;-5647.528;-2830.0564;0.0;0.0;1838.2656
1630.91;0.64827937;-0.029165914;1332.5184;-6979.493;-5646.9746;-2825.8809;0.0;0.0;1838.2656
1630.915;0.64836454;-0.02872376;1332.8574;-6979.4795;-5646.622;-2824.1206;0.0;0.0;1838.2656
1630.92;0.64844614;-0.028461518;1333.1733;-6979.4424;-5646.269;-2823.3062;0.0;0.0;1838.2656
1630.925;0.64851826;-0.028925618;1333.4517;-6980.2305;-5646.779;-2826.422;0.0;0.0;1838.2656
1630.93;0.6485802;-0.029694438;1333.6825;-6981.044;-5647.3613;-2831.1238;0.0;0.0;1838.2656
1630.935;0.64862806;-0.030539133;1333.862;-6981.6577;-5647.796;-2836.1414;0.0;0.0;1838.2656
1630.94;0.6486627;-0.031912364;1333.9749;-6982.975;-5649.0;-2843.94;0.0;0.0;1838.2656
1630.945;0.6486744;-0.033181585;1333.9648;-6984.134;-5650.169;-2850.9194;0.0;0.0;1838.2656
1630.95;0.64864385;-0.034326628;1333.75;-6985.08;-5651.33;-2856.8044;0.0;0.0;1838.2656
1630.955;0.64855224;-0.03503085;1333.2611;-6985.6064;-5652.345;-2859.7102;0.0;0.0;1838.2656
1630.96;0.6483884;-0.0347492;1332.5007;-6985.2686;-5652.7676;-2856.6362;0.0;0.0;1838.2656
1630.965;0.648172;-0.033609387;1331.5898;-6984.3457;-5652.756;-2848.5286;0.0;0.0;1838.2656
1630.97;0.64794666;-0.031012079;1330.7284;-6981.9023;-5651.174;-2832.4822;0.0;0.0;1838.2656
1630.975;0.6477677;-0.027794117;1330.1351;-6979.2;-5649.065;-2813.549;0.0;0.0;1838.2656
1630.98;0.64768267;-0.024115546;1329.9734;-6976.1284;-5646.1553;-2792.9392;0.0;0.0;1838.2656
1630.985;0.64771813;-0.020966738;1330.3137;-6973.833;-5643.5195;-2776.2546;0.0;0.0;1838.2656
1630.99;0.6478745;-0.018788107;1331.1177;-6972.3267;-5641.209;-2765.848;0.0;0.0;1838.2656
1630.995;0.64812577;-0.017664693;1332.2263;-6971.5425;-5639.3164;-2761.8699;0.0;0.0;1838.2656
1631.0;0.6484165;-0.018073803;1333.4072;-6972.001;-5638.5938;-2766.4878;0.0;0.0;1838.2656
1631.005;0.64868945;-0.019998286;1334.4471;-6973.69;-5639.2427;-2779.1807;0.0;0.0;1838.2656
1631.01;0.6489026;-0.023039883;1335.2202;-6976.0703;-5640.85;-2797.5007;0.0;0.0;1838.2656
1631.015;0.64904225;-0.026866032;1335.6875;-6979.075;-5643.3877;-2819.5356;0.0;0.0;1838.2656
1631.02;0.64910775;-0.031029675;1335.8853;-6982.185;-5646.3;-2842.8928;0.0;0.0;1838.2656
1631.025;0.64911896;-0.035085995;1335.8741;-6985.0645;-5649.1904;-2865.2405;0.0;0.0;1838.2656
1631.03;0.649087;-0.039101187;1335.7092;-6988.0957;-5652.3867;-2887.0535;0.0;0.0;1838.2656
1631.035;0.64902794;-0.042800054;1335.4504;-6990.99;-5655.54;-2906.9346;0.0;0.0;1838.2656
1631.04;0.64895517;-0.04613856;1335.165;-6993.676;-5658.5107;-2924.775;0.0;0.0;1838.2656
1631.045;0.6488869;-0.048828375;1334.9111;-6995.735;-5660.8237;-2939.1008;0.0;0.0;1838.2656
1631.05;0.6488318;-0.051313534;1334.7117;-6997.97;-5663.259;-2952.407;0.0;0.0;1838.2656
1631.055;0.6487907;-0.053280044;1334.5635;-6999.6777;-5665.1143;-2962.9556;0.0;0.0;1838.2656
1631.06;0.6487592;-0.05483836;1334.4331;-7001.079;-5666.646;-2971.2886;0.0;0.0;1838.2656
1631.065;0.64872545;-0.056268126;1334.2832;-7002.576;-5668.293;-2978.8738;0.0;0.0;1838.2656
1631.07;0.648682;-0.05722549;1334.079;-7003.764;-5669.685;-2983.7449;0.0;0.0;1838.2656
1631.075;0.6486204;-0.057555795;1333.7828;-7004.359;-5670.576;-2984.974;0.0;0.0;1838.2656
1631.08;0.6485315;-0.057510115;1333.364;-7004.91;-5671.546;-2983.8845;0.0;0.0;1838.2656
1631.085;0.64841044;-0.056881227;1332.8162;-7005.1953;-5672.379;-2979.3208;0.0;0.0;1838.2656
1631.09;0.64826167;-0.055211414;1332.1809;-7004.452;-5672.2715;-2968.8416;0.0;0.0;1838.2656
1631.095;0.64810276;-0.05298318;1331.5349;-7003.5645;-5672.0293;-2955.2612;0.0;0.0;1838.2656
