time;temperature;pressure;kinetic_energy;potential_energy;total_energy;virial;msd;diffusion;volume
2245.005;0.40274513;-0.11926708;828.0494;-8235.073;-7407.024;-2313.8325;0.0;0.0;1838.2656
2245.01;0.40284017;-0.120196015;828.4883;-8236.144;-7407.6553;-2319.8333;0.0;0.0;1838.2656
2245.015;0.4029592;-0.12174946;829.02045;-8237.729;-7408.708;-2329.4644;0.0;0.0;1838.2656
2245.02;0.4030964;-0.124288045;829.6112;-8240.199;-7410.588;-2344.6458;0.0;0.0;1838.2656
2245.025;0.40323898;-0.12746805;830.1867;-8243.117;-7412.9307;-2363.3337;0.0;0.0;1838.2656
2245.03;0.4033634;-0.13121626;830.6521;-8246.445;-7415.793;-2384.9353;0.0;0.0;1838.2656
2245.035;0.40344778;-0.13539968;830.9347;-8250.182;-7419.247;-2408.5713;0.0;0.0;1838.2656
2245.04;0.403481;-0.13962814;830.9951;-8253.921;-7422.926;-2432.011;0.0;0.0;1838.2656
2245.045;0.40345803;-0.14343248;830.84076;-8257.207;-7426.366;-2452.6826;0.0;0.0;1838.2656
2245.05;0.40338895;-0.14682251;830.5055;-8260.381;-7429.8755;-2470.7073;0.0;0.0;1838.2656
2245.055;0.40327996;-0.14951797;830.0126;-8263.059;-7433.046;-2484.5864;0.0;0.0;1838.2656
2245.06;0.40313587;-0.15141185;829.3711;-8265.4375;-7436.0664;-2493.7478;0.0;0.0;1838.2656
2245.065;0.40295628;-0.1520669;828.5831;-8266.89;-7438.3066;-2495.7844;0.0;0.0;1838.2656
2245.07;0.40274408;-0.15141255;827.67334;-8267.375;-7439.7017;-2490.3562;0.0;0.0;1838.2656
2245.075;0.40251085;-0.14932713;826.71985;-8266.687;-7439.967;-2476.9485;0.0;0.0;1838.2656
2245.08;0.40228552;-0.1461413;825.84155;-8265.453;-7439.6113;-2457.6228;0.0;0.0;1838.2656
2245.085;0.4020968;-0.14192085;825.1625;-8263.498;-7438.3354;-2432.9897;0.0;0.0;1838.2656
2245.09;0.40197435;-0.13685603;824.7744;-8260.797;-7436.0225;-2404.282;0.0;0.0;1838.2656
2245.095;0.4019295;-0.1318274;824.697;-8258.457;-7433.76;-2376.3955;0.0;0.0;1838.2656
2245.1;0.40195644;-0.12691492;824.8932;-8256.289;-7431.396;-2349.6963;0.0;0.0;1838.2656
2245.105;0.40203983;-0.12258085;825.2782;-8254.534;-7429.256;-2326.565;0.0;0.0;1838.2656
2245.11;0.40215233;-0.11890764;825.73645;-8253.205;-7427.4688;-2307.2244;0.0;0.0;1838.2656
2245.115;0.4022654;-0.11583002;826.1764;-8252.168;-7425.9917;-2291.1318;0.0;0.0;1838.2656
2245.12;0.402365;-0.11360843;826.5493;-8251.697;-7425.148;-2279.626;0.0;0.0;1838.2656
2245.125;0.40244335;-0.11181141;826.84155;-8251.332;-7424.49;-2270.3003;0.0;0.0;1838.2656
2245.13;0.40250337;-0.110414594;827.072;-8251.127;-7424.0547;-2263.058;0.0;0.0;1838.2656
2245.135;0.40255153;-0.10956202;827.25934;-8251.174;-7423.9146;-2258.731;0.0;0.0;1838.2656
2245.14;0.40259027;-0.109113485;827.41455;-8251.408;-7423.9937;-2256.5679;0.0;0.0;1838.2656
2245.145;0.4026215;-0.10882223;827.5286;-8251.533;-7424.0044;-2255.1897;0.0;0.0;1838.2656
2245.15;0.4026386;-0.10885747;827.5736;-8251.928;-7424.354;-2255.474;0.0;0.0;1838.2656
2245.155;0.4026348;-0.10902269;827.526;-8252.332;-7424.806;-2256.29;0.0;0.0;1838.2656
2245.16;0.40260622;-0.10901389;827.3677;-8252.412;-7425.0444;-2255.9248;0.0;0.0;1838.2656
2245.165;0.40254962;-0.109085575;827.10474;-8252.648;-7425.544;-2255.7942;0.0;0.0;1838.2656
2245.17;0.40247265;-0.10837204;826.7782;-8251.927;-7425.1484;-2251.2063;0.0;0.0;1838.2656
2245.175;0.4023896;-0.107579224;826.4545;-8251.19;-7424.736;-2246.1865;0.0;0.0;1838.2656
2245.18;0.40231842;-0.10663599;826.216;-8250.561;-7424.3447;-2240.5078;0.0;0.0;1838.2656
2245.185;0.40228102;-0.10540737;826.1435;-8249.432;-7423.288;-2233.5872;0.0;0.0;1838.2656
2245.19;0.4022918;-0.10436927;826.2681;-8248.56;-7422.2915;-2228.1116;0.0;0.0;1838.2656
2245.195;0.40234867;-0.103723384;826.57007;-8248.135;-7421.5645;-2225.1536;0.0;0.0;1838.2656
2245.2;0.4024409;-0.10342401;826.9761;-8247.737;-7420.761;-2224.3145;0.0;0.0;1838.2656
2245.205;0.40254194;-0.1038146;827.3885;-8248.0205;-7420.632;-2227.2935;0.0;0.0;1838.2656
2245.21;0.4026319;-0.10479023;827.7256;-8248.838;-7421.1123;-2233.348;0.0;0.0;1838.2656
2245.215;0.40269357;-0.10600042;827.948;-8249.666;-7421.718;-2240.4668;0.0;0.0;1838.2656
2245.22;0.40272772;-0.10740568;828.06537;-8250.488;-7422.423;-2248.4512;0.0;0.0;1838.2656
2245.225;0.40274018;-0.10893149;828.11334;-8251.367;-7423.254;-2256.9617;0.0;0.0;1838.2656
2245.23;0.40274277;-0.11052024;828.1274;-8252.227;-7424.099;-2265.7515;0.0;0.0;1838.2656
2245.235;0.40274015;-0.11243195;828.12256;-8253.482;-7425.36;-2276.2844;0.0;0.0;1838.2656
2245.24;0.40273482;-0.11412662;828.11145;-8254.453;-7426.342;-2285.608;0.0;0.0;1838.2656
2245.245;0.40273055;-0.115809396;828.09155;-8255.316;-7427.2246;-2294.8484;0.0;0.0;1838.2656
2245.25;0.4027221;-0.117479816;828.06714;-8256.164;-7428.0967;-2304.0117;0.0;0.0;1838.2656
2245.255;0.40271756;-0.119378865;828.06335;-8257.32;-7429.257;-2314.4768;0.0;0.0;1838.2656
2245.26;0.4027211;-0.121085465;828.1101;-8258.008;-7429.8975;-2323.982;0.0;0.0;1838.2656
2245.265;0.40274295;-0.123094894;828.2476;-8259.064;-7430.817;-2335.3386;0.0;0.0;1838.2656
2245.27;0.40279165;-0.1254984;828.5;-8260.611;-7432.1113;-2349.0981;0.0;0.0;1838.2656
2245.275;0.40286857;-0.12830912;828.8607;-8262.455;-7433.594;-2365.32;0.0;0.0;1838.2656
2245.28;0.40296674;-0.13153931;829.2883;-8264.464;-7435.176;-2383.9893;0.0;0.0;1838.2656
2245.285;0.40307105;-0.13526486;829.7101;-8266.926;-7437.216;-2405.3784;0.0;0.0;1838.2656
2245.29;0.40316084;-0.13957368;830.03735;-8269.957;-7439.92;-2429.7952;0.0;0.0;1838.2656
2245.295;0.40321448;-0.14399843;830.199;-8272.957;-7442.758;-2454.52;0.0;0.0;1838.2656
2245.3;0.40322188;-0.1483744;830.171;-8275.93;-7445.759;-2478.5967;0.0;0.0;1838.2656
2245.305;0.40318394;-0.15276223;829.97076;-8279.094;-7449.123;-2502.3943;0.0;0.0;1838.2656
2245.31;0.40311006;-0.15659754;829.6454;-8281.758;-7452.1123;-2522.8945;0.0;0.0;1838.2656
2245.315;0.40301442;-0.15976857;829.24866;-8283.888;-7454.639;-2539.5886;0.0;0.0;1838.2656
2245.32;0.40290853;-0.1624124;828.82275;-8285.601;-7456.778;-2553.317;0.0;0.0;1838.2656
2245.325;0.402801;-0.1643576;828.3982;-8286.873;-7458.4746;-2563.195;0.0;0.0;1838.2656
2245.33;0.40269756;-0.1657116;827.99536;-8287.855;-7459.8604;-2569.8564;0.0;0.0;1838.2656
2245.335;0.40260255;-0.16658431;827.6356;-8288.48;-7460.8447;-2573.95;0.0;0.0;1838.2656
2245.34;0.40252182;-0.16688764;827.339;-8288.658;-7461.3193;-2575.0295;0.0;0.0;1838.2656
2245.345;0.4024591;-0.16684076;827.12427;-8288.725;-7461.6006;-2574.3416;0.0;0.0;1838.2656
2245.35;0.4024192;-0.1665571;827.0048;-8288.715;-7461.71;-2572.5383;0.0;0.0;1838.2656
2245.355;0.40240213;-0.16619827;826.95685;-8288.795;-7461.838;-2570.4634;0.0;0.0;1838.2656
2245.36;0.4023943;-0.16559002;826.923;-8288.607;-7461.6846;-2567.0413;0.0;0.0;1838.2656
2245.365;0.40238112;-0.16487095;826.84265;-8288.359;-7461.5166;-2562.915;0.0;0.0;1838.2656
2245.37;0.40234935;-0.1639064;826.6759;-8288.006;-7461.33;-2557.2622;0.0;0.0;1838.2656
2245.375;0.40229458;-0.16252998;826.43195;-8287.239;-7460.807;-2549.1838;0.0;0.0;1838.2656
2245.38;0.40222764;-0.16073619;826.1471;-8286.247;-7460.1;-2538.7217;0.0;0.0;1838.2656
2245.385;0.40215495;-0.15856488;825.84894;-8285.088;-7459.239;-2526.151;0.0;0.0;1838.2656
2245.39;0.40208235;-0.15613212;825.5454;-8283.81;-7458.264;-2512.1277;0.0;0.0;1838.2656
2245.395;0.40200612;-0.15297598;825.21295;-8281.907;-7456.6943;-2494.0574;0.0;0.0;1838.2656
2245.4;0.4019198;-0.14942655;824.84436;-8279.85;-7455.0054;-2473.7458;0.0;0.0;1838.2656
2245.405;0.4018279;-0.14535014;824.4695;-8277.405;-7452.9355;-2450.5154;0.0;0.0;1838.2656
2245.41;0.40174276;-0.14090243;824.1575;-8274.814;-7450.657;-2425.3633;0.0;0.0;1838.2656
2245.415;0.40168643;-0.13618398;823.9879;-8272.111;-7448.1235;-2399.0027;0.0;0.0;1838.2656
2245.42;0.40167475;-0.13119216;824.02136;-8269.023;-7445.002;-2371.5408;0.0;0.0;1838.2656
2245.425;0.40171903;-0.12647931;824.2899;-8266.307;-7442.0166;-2346.0876;0.0;0.0;1838.2656
2245.43;0.40182132;-0.12244016;824.7809;-8264.232;-7439.4517;-2324.7944;0.0;0.0;1838.2656
2245.435;0.4019714;-0.11904561;825.45044;-8262.51;-7437.0596;-2307.413;0.0;0.0;1838.2656
2245.44;0.4021565;-0.11672656;826.23553;-8261.787;-7435.552;-2296.1943;0.0;0.0;1838.2656
2245.445;0.40235853;-0.1156364;827.0679;-8261.85;-7434.7817;-2291.847;0.0;0.0;1838.2656
2245.45;0.4025616;-0.11543292;827.8839;-8262.434;-7434.55;-2292.357;0.0;0.0;1838.2656
2245.455;0.40275106;-0.11662624;828.62427;-8264.205;-7435.581;-2300.4185;0.0;0.0;1838.2656
2245.46;0.40291297;-0.118730456;829.23157;-8266.5625;-7437.331;-2313.2375;0.0;0.0;1838.2656
2245.465;0.4030336;-0.121583685;829.66724;-8269.309;-7439.6416;-2329.8438;0.0;0.0;1838.2656
2245.47;0.40310967;-0.124982186;829.91156;-8272.441;-7442.53;-2349.0745;0.0;0.0;1838.2656
2245.475;0.40313643;-0.12864606;829.95807;-8275.521;-7445.5635;-2369.373;0.0;0.0;1838.2656
2245.48;0.40311676;-0.13232145;829.832;-8278.624;-7448.792;-2389.39;0.0;0.0;1838.2656
2245.485;0.40306208;-0.1355939;829.58167;-8280.99;-7451.4087;-2406.9363;0.0;0.0;1838.2656
2245.49;0.40298462;-0.13869731;829.25244;-8283.326;-7454.0737;-2423.3923;0.0;0.0;1838.2656
2245.495;0.4028945;-0.1412773;828.8854;-8284.931;-7456.0454;-2436.8865;0.0;0.0;1838.2656
2245.5;0.40280125;-0.14346832;828.5184;-8286.5205;-7458.002;-2448.2354;0.0;0.0;1838.2656
2245.505;0.40271416;-0.14541535;828.18506;-8287.703;-7459.518;-2458.3062;0.0;0.0;1838.2656
2245.51;0.40263897;-0.14692982;827.9061;-8288.82;-7460.914;-2466.1003;0.0;0.0;1838.2656
2245.515;0.40258014;-0.14821973;827.69836;-8289.63;-7461.9316;-2472.7983;0.0;0.0;1838.2656
2245.52;0.40254024;-0.14910579;827.5679;-8290.137;-7462.569;-2477.4238;0.0;0.0;1838.2656
2245.525;0.40251932;-0.1500326;827.5106;-8290.814;-7463.3037;-2482.4207;0.0;0.0;1838.2656
2245.53;0.40251464;-0.1509536;827.5163;-8291.646;-7464.1304;-2487.511;0.0;0.0;1838.2656
2245.535;0.40252352;-0.15175913;827.5751;-8292.186;-7464.6104;-2492.071;0.0;0.0;1838.2656
2245.54;0.4025436;-0.15277424;827.6753;-8293.0625;-7465.387;-2497.8696;0.0;0.0;1838.2656
2245.545;0.4025712;-0.15386206;827.811;-8293.974;-7466.1626;-2504.14;0.0;0.0;1838.2656
2245.55;0.40260705;-0.15515423;827.97327;-8295.068;-7467.095;-2511.5906;0.0;0.0;1838.2656
2245.555;0.40264624;-0.15655029;828.1431;-8296.215;-7468.072;-2519.6294;0.0;0.0;1838.2656
2245.56;0.40268436;-0.15825969;828.3097;-8297.6;-7469.29;-2529.3894;0.0;0.0;1838.2656
2245.565;0.40271991;-0.16001354;828.4512;-8299.162;-7470.711;-2539.3445;0.0;0.0;1838.2656
2245.57;0.40274352;-0.16202733;828.52454;-8301.051;-7472.5264;-2550.597;0.0;0.0;1838.2656
2245.575;0.4027426;-0.16370778;828.47;-8302.436;-7473.966;-2559.7551;0.0;0.0;1838.2656
2245.58;0.40270093;-0.16523065;828.2201;-8303.832;-7475.612;-2567.6536;0.0;0.0;1838.2656
2245.585;0.40260324;-0.16601476;827.7217;-8304.536;-7476.8145;-2570.981;0.0;0.0;1838.2656
2245.59;0.4024418;-0.16599506;826.96936;-8304.864;-7477.895;-2569.3677;0.0;0.0;1838.2656
2245.595;0.40222493;-0.16486469;826.01306;-8304.29;-7478.277;-2561.2214;0.0;0.0;1838.2656
2245.6;0.40197125;-0.16222504;824.9544;-8302.533;-7477.5786;-2544.5469;0.0;0.0;1838.2656
2245.605;0.40171373;-0.158226;823.9324;-8299.771;-7475.839;-2520.449;0.0;0.0;1838.2656
2245.61;0.4014872;-0.15309452;823.0814;-8296.127;-7473.0454;-2490.448;0.0;0.0;1838.2656
2245.615;0.40132105;-0.14718267;822.5209;-8292.137;-7469.6157;-2456.7244;0.0;0.0;1838.2656
2245.62;0.4012418;-0.14092146;822.33356;-8287.827;-7465.4937;-2421.8203;0.0;0.0;1838.2656
2245.625;0.40125927;-0.13478765;822.5388;-8283.666;-7461.127;-2388.404;0.0;0.0;1838.2656
2245.63;0.40136993;-0.1292364;823.1052;-8280.019;-7456.913;-2358.9229;0.0;0.0;1838.2656
2245.635;0.40155885;-0.12481159;823.96216;-8277.207;-7453.245;-2336.2349;0.0;0.0;1838.2656
2245.64;0.4018044;-0.12178091;825.01013;-8275.562;-7450.5513;-2321.6172;0.0;0.0;1838.2656
2245.645;0.40207896;-0.12030274;826.145;-8275.025;-7448.8804;-2315.735;0.0;0.0;1838.2656
2245.65;0.40235904;-0.120279305;827.2775;-8275.484;-7448.207;-2317.8708;0.0;0.0;1838.2656
2245.655;0.4026258;-0.121913485;828.32837;-8277.129;-7448.801;-2328.9849;0.0;0.0;1838.2656
2245.66;0.4028602;-0.12458856;829.2409;-8279.363;-7450.1226;-2345.5625;0.0;0.0;1838.2656
2245.665;0.40305498;-0.12857467;829.98376;-8282.562;-7452.5776;-2369.0308;0.0;0.0;1838.2656
2245.67;0.40320405;-0.133489;830.5386;-8286.455;-7455.9165;-2397.242;0.0;0.0;1838.2656
2245.675;0.40330565;-0.13889423;830.90466;-8290.523;-7459.6187;-2427.7827;0.0;0.0;1838.2656
2245.68;0.40336207;-0.14467281;831.093;-8294.952;-7463.8594;-2460.027;0.0;0.0;1838.2656
2245.685;0.4033769;-0.1504118;831.1117;-8299.254;-7468.142;-2491.7139;0.0;0.0;1838.2656
2245.69;0.40335098;-0.15619232;830.9674;-8303.766;-7472.7983;-2523.3037;0.0;0.0;1838.2656
2245.695;0.40328696;-0.16122447;830.66223;-8307.405;-7476.743;-2550.4446;0.0;0.0;1838.2656
2245.7;0.40318388;-0.16561152;830.20386;-8310.659;-7480.455;-2573.7217;0.0;0.0;1838.2656
2245.705;0.40304732;-0.16922271;829.6067;-8313.451;-7483.8447;-2592.4424;0.0;0.0;1838.2656
2245.71;0.40287867;-0.17185155;828.87665;-8315.596;-7486.719;-2605.4797;0.0;0.0;1838.2656
2245.715;0.4026805;-0.17296343;828.0316;-8316.369;-7488.3374;-2609.9214;0.0;0.0;1838.2656
2245.72;0.40246007;-0.17308173;827.11487;-8316.863;-7489.7485;-2608.7402;0.0;0.0;1838.2656
2245.725;0.40223217;-0.17170835;826.182;-8316.299;-7490.1167;-2599.3005;0.0;0.0;1838.2656
2245.73;0.4020092;-0.16913854;825.2944;-8314.832;-7489.5376;-2583.3533;0.0;0.0;1838.2656
2245.735;0.4018084;-0.16526341;824.51;-8312.545;-7488.035;-2560.414;0.0;0.0;1838.2656
2245.74;0.40163967;-0.16068836;823.87164;-8309.867;-7485.9956;-2533.907;0.0;0.0;1838.2656
2245.745;0.40151265;-0.15517215;823.408;-8306.481;-7483.073;-2502.5588;0.0;0.0;1838.2656
2245.75;0.4014309;-0.14933966;823.14197;-8303.053;-7479.9106;-2469.8618;0.0;0.0;1838.2656
2245.755;0.4014013;-0.14329286;823.09033;-8299.357;-7476.267;-2436.4116;0.0;0.0;1838.2656
2245.76;0.40142384;-0.13733877;823.261;-8295.795;-7472.534;-2403.9175;0.0;0.0;1838.2656
2245.765;0.40150115;-0.13211207;823.6484;-8292.848;-7469.199;-2375.868;0.0;0.0;1838.2656
2245.77;0.4016261;-0.12750703;824.21606;-8290.321;-7466.1055;-2351.6074;0.0;0.0;1838.2656
2245.775;0.40178594;-0.123886526;824.8979;-8288.445;-7463.5474;-2333.005;0.0;0.0;1838.2656
2245.78;0.40196;-0.121271014;825.6033;-8287.31;-7461.706;-2319.9915;0.0;0.0;1838.2656
2245.785;0.40212443;-0.11964424;826.232;-8286.814;-7460.5825;-2312.2776;0.0;0.0;1838.2656
2245.79;0.40225556;-0.118929066;826.69617;-8286.837;-7460.1406;-2309.262;0.0;0.0;1838.2656
2245.795;0.4023362;-0.118673615;826.94055;-8287.148;-7460.208;-2308.342;0.0;0.0;1838.2656
2245.8;0.40235975;-0.118642874;826.9561;-8287.407;-7460.451;-2308.2036;0.0;0.0;1838.2656
2245.805;0.40233123;-0.118609436;826.78094;-8287.494;-7460.7134;-2307.669;0.0;0.0;1838.2656
2245.81;0.40226638;-0.118350424;826.49854;-8287.1875;-7460.689;-2305.6755;0.0;0.0;1838.2656
2245.815;0.4021913;-0.11795946;826.20776;-8286.836;-7460.628;-2302.938;0.0;0.0;1838.2656
2245.82;0.4021275;-0.11727803;826.00433;-8286.046;-7460.0415;-2298.7732;0.0;0.0;1838.2656
2245.825;0.40209872;-0.1167327;825.9663;-8285.449;-7459.483;-2295.6897;0.0;0.0;1838.2656
2245.83;0.40211686;-0.11659521;826.1295;-8285.28;-7459.151;-2295.2578;0.0;0.0;1838.2656
2245.835;0.40218407;-0.116796985;826.4804;-8285.189;-7458.709;-2297.0725;0.0;0.0;1838.2656
2245.84;0.40228894;-0.117737204;826.9516;-8285.721;-7458.769;-2303.2;0.0;0.0;1838.2656
2245.845;0.40240782;-0.119174615;827.43713;-8286.407;-7458.97;-2312.0981;0.0;0.0;1838.2656
2245.85;0.402512;-0.12139322;827.81476;-8287.746;-7459.931;-2325.0884;0.0;0.0;1838.2656
2245.855;0.4025725;-0.123803265;827.98914;-8289.033;-7461.044;-2338.728;0.0;0.0;1838.2656
2245.86;0.40257517;-0.12629369;827.92346;-8290.2295;-7462.306;-2352.331;0.0;0.0;1838.2656
2245.865;0.40251982;-0.12853247;827.6267;-8291.246;-7463.619;-2364.0837;0.0;0.0;1838.2656
2245.87;0.40241396;-0.13033848;827.15784;-8292.038;-7464.8804;-2373.106;0.0;0.0;1838.2656
2245.875;0.4022808;-0.13150728;826.6094;-8292.261;-7465.6514;-2378.4546;0.0;0.0;1838.2656
2245.88;0.40214196;-0.13183367;826.0681;-8291.809;-7465.74;-2379.172;0.0;0.0;1838.2656
2245.885;0.40201828;-0.13154633;825.61865;-8290.841;-7465.222;-2376.6887;0.0;0.0;1838.2656
2245.89;0.4019286;-0.13070995;825.33167;-8289.645;-7464.313;-2371.5022;0.0;0.0;1838.2656
2245.895;0.40188804;-0.1299324;825.2615;-8288.696;-7463.4346;-2367.0737;0.0;0.0;1838.2656
2245.9;0.401905;-0.12901507;825.42523;-8287.58;-7462.155;-2362.3423;0.0;0.0;1838.2656
2245.905;0.40197685;-0.12826437;825.79944;-8286.668;-7460.8687;-2358.9507;0.0;0.0;1838.2656
2245.91;0.40209177;-0.12806459;826.3104;-8286.344;-7460.033;-2358.871;0.0;0.0;1838.2656
2245.915;0.4022236;-0.12848756;826.8464;-8286.52;-7459.6733;-2362.2756;0.0;0.0;1838.2656
2245.92;0.40234327;-0.12939557;827.2866;-8287.197;-7459.9106;-2368.1636;0.0;0.0;1838.2656
2245.925;0.4024235;-0.13066965;827.5405;-8288.289;-7460.7485;-2375.6978;0.0;0.0;1838.2656
2245.93;0.40245062;-0.13190155;827.5737;-8289.23;-7461.6567;-2382.5576;0.0;0.0;1838.2656
2245.935;0.40242448;-0.13287887;827.40204;-8289.876;-7462.474;-2387.604;0.0;0.0;1838.2656
2245.94;0.4023555;-0.13343024;827.083;-8290.315;-7463.2324;-2390.0066;0.0;0.0;1838.2656
2245.945;0.40226242;-0.13356392;826.69653;-8290.771;-7464.075;-2389.971;0.0;0.0;1838.2656
2245.95;0.40216532;-0.13306701;826.30396;-8290.475;-7464.171;-2386.4456;0.0;0.0;1838.2656
2245.955;0.40207255;-0.1320552;825.9431;-8289.908;-7463.965;-2380.1438;0.0;0.0;1838.2656
2245.96;0.4019926;-0.13033089;825.6339;-8288.834;-7463.2;-2370.016;0.0;0.0;1838.2656
2245.965;0.40192553;-0.12841153;825.36053;-8287.557;-7462.1963;-2358.8845;0.0;0.0;1838.2656
2245.97;0.4018624;-0.12614624;825.09845;-8286.249;-7461.1504;-2345.868;0.0;0.0;1838.2656
2245.975;0.40180138;-0.12349535;824.8384;-8284.457;-7459.6187;-2330.7285;0.0;0.0;1838.2656
2245.98;0.40174043;-0.12044065;824.5866;-8282.344;-7457.7573;-2313.379;0.0;0.0;1838.2656
2245.985;0.40168625;-0.11730951;824.3946;-8280.168;-7455.7734;-2295.7273;0.0;0.0;1838.2656
2245.99;0.40165758;-0.113866374;824.32886;-8277.554;-7453.2246;-2276.6077;0.0;0.0;1838.2656
2245.995;0.40166757;-0.11091343;824.4386;-8275.58;-7451.1416;-2260.5422;0.0;0.0;1838.2656
2246.0;0.40172473;-0.1083522;824.7405;-8273.985;-7449.245;-2247.0212;0.0;0.0;1838.2656
2246.005;0.40182546;-0.10639401;825.1966;-8272.869;-7447.6724;-2237.1345;0.0;0.0;1838.2656
2246.01;0.40195292;-0.10500304;825.73694;-8271.929;-7446.192;-2230.5442;0.0;0.0;1838.2656
2246.015;0.40208814;-0.10448909;826.2543;-8271.655;-7445.401;-2228.7446;0.0;0.0;1838.2656
2246.02;0.40219867;-0.10460965;826.6501;-8271.859;-7445.2095;-2230.2012;0.0;0.0;1838.2656
2246.025;0.40227196;-0.10537437;826.8862;-8272.507;-7445.6206;-2234.8906;0.0;0.0;1838.2656
2246.03;0.4023051;-0.10602441;826.97925;-8272.6875;-7445.708;-2238.6616;0.0;0.0;1838.2656
2246.035;0.40231207;-0.10706945;826.99524;-8273.168;-7446.173;-2244.4568;0.0;0.0;1838.2656
2246.04;0.4023113;-0.108016;827.0103;-8273.338;-7446.3276;-2249.707;0.0;0.0;1838.2656
2246.045;0.40232;-0.109487444;827.0759;-8273.982;-7446.9062;-2257.953;0.0;0.0;1838.2656
2246.05;0.40234354;-0.11134518;827.20215;-8274.968;-7447.7656;-2268.4504;0.0;0.0;1838.2656
2246.055;0.4023807;-0.1133178;827.37537;-8275.8125;-7448.437;-2279.6753;0.0;0.0;1838.2656
2246.06;0.40242696;-0.11578389;827.5963;-8276.899;-7449.303;-2293.7173;0.0;0.0;1838.2656
2246.065;0.40248698;-0.11882216;827.86566;-8278.512;-7450.646;-2311.0115;0.0;0.0;1838.2656
2246.07;0.40255615;-0.12225148;828.16394;-8280.075;-7451.911;-2330.52;0.0;0.0;1838.2656
2246.075;0.4026282;-0.12632127;828.46124;-8282.113;-7453.652;-2353.5586;0.0;0.0;1838.2656
2246.08;0.40269426;-0.13074698;828.70105;-8284.281;-7455.58;-2378.445;0.0;0.0;1838.2656
2246.085;0.4027363;-0.13544591;828.83655;-8286.403;-7457.567;-2404.63;0.0;0.0;1838.2656
2246.09;0.40275037;-0.14047042;828.84143;-8288.831;-7459.9897;-2432.3486;0.0;0.0;1838.2656
2246.095;0.40272912;-0.14536859;828.7135;-8291.048;-7462.3345;-2459.1052;0.0;0.0;1838.2656
2246.1;0.40268102;-0.15004413;828.49036;-8292.899;-7464.409;-2484.4436;0.0;0.0;1838.2656
2246.105;0.4026163;-0.15485229;828.2178;-8295.053;-7466.835;-2510.4146;0.0;0.0;1838.2656
2246.11;0.40254754;-0.15909705;827.9692;-8296.633;-7468.6636;-2533.3262;0.0;0.0;1838.2656
