time;temperature;pressure;kinetic_energy;potential_energy;total_energy;virial;msd;diffusion;volume
665.005;1.034775;0.8833533;2124.7275;-6593.9434;-4469.216;622.05884;0.0;0.0;1838.2656
665.01;1.0346509;0.88769126;2124.284;-6590.754;-4466.4697;646.86914;0.0;0.0;1838.2656
665.015;1.0345958;0.892491;2124.105;-6586.9326;-4462.8276;673.69666;0.0;0.0;1838.2656
665.02;1.0345944;0.8973538;2124.0789;-6583.173;-4459.0938;700.5664;0.0;0.0;1838.2656
665.025;1.034602;0.90196717;2124.0073;-6579.6157;-4455.6084;726.15106;0.0;0.0;1838.2656
665.03;1.0345699;0.90715545;2123.7449;-6575.39;-4451.6455;755.28815;0.0;0.0;1838.2656
665.035;1.0344886;0.9126424;2123.3838;-6570.957;-4447.573;786.26984;0.0;0.0;1838.2656
665.04;1.0344223;0.91856414;2123.2393;-6565.922;-4442.6826;819.216;0.0;0.0;1838.2656
665.045;1.0344497;0.92388916;2123.54;-6561.922;-4438.382;847.9811;0.0;0.0;1838.2656
665.05;1.0345908;0.9287052;2124.331;-6558.1523;-4433.8213;872.9585;0.0;0.0;1838.2656
665.055;1.0348467;0.9320914;2125.5913;-6555.866;-4430.275;889.1121;0.0;0.0;1838.2656
665.06;1.0352064;0.9337213;2127.2437;-6555.0264;-4427.7827;894.796;0.0;0.0;1838.2656
665.065;1.0356371;0.9329856;2129.0696;-6556.18;-4427.1104;887.08704;0.0;0.0;1838.2656
665.07;1.0360647;0.93015796;2130.7998;-6559.0967;-4428.297;868.0325;0.0;0.0;1838.2656
665.075;1.0364383;0.9253779;2132.231;-6563.6523;-4431.4214;838.8093;0.0;0.0;1838.2656
665.08;1.03671;0.91947454;2133.183;-6568.9478;-4435.7646;804.34906;0.0;0.0;1838.2656
665.085;1.0368427;0.9131276;2133.5022;-6574.476;-4440.9736;768.709;0.0;0.0;1838.2656
665.09;1.036801;0.9070758;2133.053;-6579.8945;-4446.842;736.23285;0.0;0.0;1838.2656
665.095;1.0365641;0.9025412;2131.836;-6583.8164;-4451.9805;713.6595;0.0;0.0;1838.2656
665.1;1.0361625;0.9001532;2129.9941;-6586.2266;-4456.2324;704.17395;0.0;0.0;1838.2656
665.105;1.035648;0.90086645;2127.8635;-6585.8604;-4457.997;712.3686;0.0;0.0;1838.2656
665.11;1.0351386;0.9039449;2125.935;-6584.051;-4458.1157;733.2026;0.0;0.0;1838.2656
665.115;1.0347534;0.9090773;2124.6284;-6580.806;-4456.1777;764.11957;0.0;0.0;1838.2656
665.12;1.0345604;0.91527635;2124.0874;-6577.07;-4452.9824;799.38824;0.0;0.0;1838.2656
665.125;1.0345389;0.9217065;2124.06;-6573.4023;-4449.3423;834.90405;0.0;0.0;1838.2656
665.13;1.0345705;0.9282552;2124.0337;-6569.628;-4445.594;871.07153;0.0;0.0;1838.2656
665.135;1.0345273;0.9351518;2123.585;-6565.2856;-4441.7007;910.0023;0.0;0.0;1838.2656
665.14;1.0343525;0.942821;2122.6667;-6560.29;-4437.623;954.13293;0.0;0.0;1838.2656
665.145;1.0341018;0.9517438;2121.629;-6553.9062;-4432.2773;1005.41595;0.0;0.0;1838.2656
665.15;1.0339025;0.96135265;2121.0537;-6546.9043;-4425.8506;1059.5571;0.0;0.0;1838.2656
665.155;1.0339047;0.9704185;2121.4214;-6540.5244;-4419.103;1108.8184;0.0;0.0;1838.2656
665.16;1.0341685;0.9780345;2122.8152;-6535.2134;-4412.3984;1148.0314;0.0;0.0;1838.2656
665.165;1.0346503;0.9828803;2124.9204;-6532.259;-4407.3384;1170.5443;0.0;0.0;1838.2656
665.17;1.0352253;0.9845976;2127.228;-6531.8203;-4404.5923;1175.3998;0.0;0.0;1838.2656
665.175;1.0357736;0.9837582;2129.2766;-6532.92;-4403.6436;1166.6736;0.0;0.0;1838.2656
665.18;1.0361961;0.98033565;2130.7559;-6535.9697;-4405.214;1144.8402;0.0;0.0;1838.2656
665.185;1.0364498;0.9754279;2131.5261;-6539.796;-4408.2695;1116.2347;0.0;0.0;1838.2656
665.19;1.0365199;0.9699286;2131.5728;-6543.8193;-4412.2466;1085.8138;0.0;0.0;1838.2656
665.195;1.0364285;0.9649237;2131.1257;-6546.8975;-4415.7715;1059.1067;0.0;0.0;1838.2656
665.2;1.0362785;0.9602856;2130.6833;-6549.6255;-4418.9424;1034.4132;0.0;0.0;1838.2656
665.205;1.0362133;0.95544875;2130.779;-6552.546;-4421.7666;1007.5475;0.0;0.0;1838.2656
665.21;1.0363339;0.9497826;2131.654;-6556.336;-4424.6816;974.55023;0.0;0.0;1838.2656
665.215;1.0366273;0.9426416;2133.0425;-6561.3394;-4428.297;932.392;0.0;0.0;1838.2656
665.22;1.0369575;0.93366134;2134.3308;-6568.1396;-4433.8086;880.29095;0.0;0.0;1838.2656
665.225;1.0371697;0.92397887;2134.9744;-6575.2607;-4440.286;825.6072;0.0;0.0;1838.2656
665.23;1.0371749;0.9144238;2134.746;-6582.23;-4447.484;773.3693;0.0;0.0;1838.2656
665.235;1.0369675;0.9061381;2133.662;-6588.2803;-4454.618;729.8434;0.0;0.0;1838.2656
665.24;1.0365686;0.90038484;2131.791;-6592.075;-4460.284;701.8576;0.0;0.0;1838.2656
665.245;1.0359926;0.8979405;2129.226;-6593.314;-4464.088;693.50757;0.0;0.0;1838.2656
665.25;1.0352794;0.8995467;2126.1826;-6591.462;-4465.2793;708.45197;0.0;0.0;1838.2656
665.255;1.0345036;0.9052273;2123.0298;-6586.711;-4463.681;746.08514;0.0;0.0;1838.2656
665.26;1.0337753;0.9147057;2120.2534;-6579.4805;-4459.227;803.9091;0.0;0.0;1838.2656
665.265;1.0332164;0.9273971;2118.268;-6569.7246;-4451.4565;877.8703;0.0;0.0;1838.2656
665.27;1.0328947;0.9415973;2117.2842;-6559.4326;-4442.1484;958.1493;0.0;0.0;1838.2656
665.275;1.032833;0.95618844;2117.3372;-6549.0156;-4431.6787;1038.5106;0.0;0.0;1838.2656
665.28;1.0330211;0.96996063;2118.4473;-6539.4272;-4420.98;1112.2415;0.0;0.0;1838.2656
665.285;1.0334724;0.9810874;2120.6106;-6532.206;-4411.5957;1169.2764;0.0;0.0;1838.2656
665.29;1.0341549;0.9887493;2123.6104;-6527.878;-4404.2676;1205.531;0.0;0.0;1838.2656
665.295;1.0349714;0.9920479;2126.8975;-6526.913;-4400.0156;1217.1478;0.0;0.0;1838.2656
665.3;1.0357386;0.99123675;2129.7083;-6528.9214;-4399.213;1207.0529;0.0;0.0;1838.2656
665.305;1.0362818;0.9873699;2131.5227;-6532.7827;-4401.26;1182.0989;0.0;0.0;1838.2656
665.31;1.03656;0.9817238;2132.377;-6537.661;-4405.284;1149.2534;0.0;0.0;1838.2656
665.315;1.0366577;0.97509605;2132.6768;-6542.954;-4410.2773;1112.1031;0.0;0.0;1838.2656
665.32;1.0366877;0.9680639;2132.799;-6548.5146;-4415.716;1073.0775;0.0;0.0;1838.2656
665.325;1.0367006;0.9608992;2132.7405;-6553.882;-4421.1416;1033.6827;0.0;0.0;1838.2656
665.33;1.0366304;0.954446;2132.2485;-6558.3896;-4426.141;999.0789;0.0;0.0;1838.2656
665.335;1.036432;0.9491042;2131.2664;-6561.837;-4430.5703;971.584;0.0;0.0;1838.2656
665.34;1.0361394;0.9451013;2130.0303;-6564.55;-4434.5195;951.98114;0.0;0.0;1838.2656
665.345;1.0358374;0.94296366;2128.8545;-6565.658;-4436.8037;942.54395;0.0;0.0;1838.2656
665.35;1.035586;0.94251466;2127.9138;-6565.3545;-4437.4404;941.9494;0.0;0.0;1838.2656
665.355;1.0353951;0.942928;2127.1816;-6564.704;-4437.5225;945.6933;0.0;0.0;1838.2656
665.36;1.0352327;0.94468224;2126.4717;-6563.237;-4436.765;956.7875;0.0;0.0;1838.2656
665.365;1.0350394;0.9471813;2125.5583;-6561.358;-4435.8;972.39575;0.0;0.0;1838.2656
665.37;1.0347703;0.95132506;2124.3325;-6558.0034;-4433.671;997.6993;0.0;0.0;1838.2656
665.375;1.0344319;0.9572305;2122.9326;-6553.1245;-4430.192;1033.0665;0.0;0.0;1838.2656
665.38;1.0340971;0.9645544;2121.71;-6546.991;-4425.2812;1075.902;0.0;0.0;1838.2656
665.385;1.0338657;0.9726705;2121.057;-6540.287;-4419.2305;1121.9664;0.0;0.0;1838.2656
665.39;1.0338198;0.98058844;2121.2327;-6533.95;-4412.718;1165.2809;0.0;0.0;1838.2656
665.395;1.0339882;0.98745316;2122.2405;-6528.404;-4406.163;1201.1227;0.0;0.0;1838.2656
665.4;1.0343316;0.991778;2123.8594;-6525.1484;-4401.289;1221.7356;0.0;0.0;1838.2656
665.405;1.034775;0.9937888;2125.7808;-6523.423;-4397.642;1228.9818;0.0;0.0;1838.2656
665.41;1.0352454;0.9931189;2127.7173;-6523.505;-4395.7876;1221.4144;0.0;0.0;1838.2656
665.415;1.0356781;0.9900142;2129.395;-6525.3887;-4395.9937;1200.9371;0.0;0.0;1838.2656
665.42;1.0360074;0.98522335;2130.5596;-6527.905;-4397.345;1172.1876;0.0;0.0;1838.2656
665.425;1.0361812;0.97904205;2131.038;-6531.468;-4400.4297;1137.1421;0.0;0.0;1838.2656
665.43;1.0361811;0.9727074;2130.871;-6534.747;-4403.876;1102.5415;0.0;0.0;1838.2656
665.435;1.0360568;0.9670064;2130.3057;-6537.0186;-4406.713;1072.2324;0.0;0.0;1838.2656
665.44;1.0358814;0.96169496;2129.6172;-6539.08;-4409.463;1044.3181;0.0;0.0;1838.2656
665.445;1.035708;0.9569796;2128.9272;-6540.6885;-4411.761;1019.69336;0.0;0.0;1838.2656
665.45;1.0355369;0.95306385;2128.2537;-6541.5693;-4413.3154;999.44617;0.0;0.0;1838.2656
665.455;1.0353774;0.9502242;2127.6436;-6541.4365;-4413.793;985.00635;0.0;0.0;1838.2656
665.46;1.0352473;0.94776964;2127.217;-6541.1113;-4413.8945;972.3229;0.0;0.0;1838.2656
665.465;1.0351886;0.94583905;2127.148;-6540.3125;-4413.1646;961.81433;0.0;0.0;1838.2656
665.47;1.0352362;0.94336444;2127.5044;-6540.3804;-4412.876;947.45435;0.0;0.0;1838.2656
665.475;1.0353769;0.9404511;2128.1643;-6540.7524;-4412.588;930.06824;0.0;0.0;1838.2656
665.48;1.0355558;0.93672884;2128.8923;-6542.1406;-4413.248;908.0844;0.0;0.0;1838.2656
665.485;1.0357152;0.9324058;2129.4573;-6543.9883;-4414.5312;883.1141;0.0;0.0;1838.2656
665.49;1.0358051;0.92766476;2129.736;-6546.5854;-4416.8496;856.41046;0.0;0.0;1838.2656
665.495;1.0358288;0.9230583;2129.812;-6549.1426;-4419.3306;830.85474;0.0;0.0;1838.2656
665.5;1.0358322;0.91862506;2129.874;-6551.5586;-4421.6846;806.2824;0.0;0.0;1838.2656
665.505;1.035854;0.91464484;2129.9883;-6553.948;-4423.96;784.10394;0.0;0.0;1838.2656
665.51;1.0358742;0.910997;2129.9224;-6556.335;-4426.4126;764.11835;0.0;0.0;1838.2656
665.515;1.0357943;0.90838206;2129.2651;-6558.1064;-4428.8413;751.0124;0.0;0.0;1838.2656
665.52;1.0355204;0.9079057;2127.7085;-6558.1865;-4430.478;751.4986;0.0;0.0;1838.2656
665.525;1.0350173;0.9107615;2125.296;-6555.5205;-4430.2246;772.0727;0.0;0.0;1838.2656
665.53;1.0343633;0.9171543;2122.5134;-6550.182;-4427.669;812.89276;0.0;0.0;1838.2656
665.535;1.0337315;0.92677647;2120.1768;-6542.9004;-4422.7236;870.6304;0.0;0.0;1838.2656
665.54;1.0333397;0.9386893;2119.038;-6534.298;-4415.26;938.6047;0.0;0.0;1838.2656
665.545;1.0333004;0.950886;2119.2725;-6526.044;-4406.7715;1005.39825;0.0;0.0;1838.2656
665.55;1.0335426;0.9621406;2120.3987;-6518.908;-4398.51;1065.2126;0.0;0.0;1838.2656
665.555;1.0339022;0.9716096;2121.9287;-6513.498;-4391.5693;1114.3721;0.0;0.0;1838.2656
665.56;1.0343263;0.9790836;2123.6995;-6509.668;-4385.9688;1152.0481;0.0;0.0;1838.2656
665.565;1.0347849;0.9840104;2125.4753;-6507.9673;-4382.492;1175.6669;0.0;0.0;1838.2656
665.57;1.0351752;0.9871986;2126.7065;-6507.2466;-4380.54;1190.7867;0.0;0.0;1838.2656
665.575;1.0353414;0.9897159;2126.9365;-6506.753;-4379.8164;1204.2091;0.0;0.0;1838.2656
665.58;1.0352545;0.9922937;2126.3599;-6505.8193;-4379.4595;1219.5786;0.0;0.0;1838.2656
665.585;1.0350637;0.9956304;2125.627;-6503.9565;-4378.3296;1239.4453;0.0;0.0;1838.2656
665.59;1.0349294;0.9991611;2125.292;-6501.87;-4376.578;1259.5867;0.0;0.0;1838.2656
665.595;1.0349399;1.0028273;2125.5283;-6499.589;-4374.0605;1279.3319;0.0;0.0;1838.2656
665.6;1.0350801;1.0050063;2126.2534;-6498.5723;-4372.319;1289.8988;0.0;0.0;1838.2656
665.605;1.0353199;1.0059338;2127.375;-6498.409;-4371.034;1292.7706;0.0;0.0;1838.2656
665.61;1.0356507;1.0046097;2128.8516;-6500.0273;-4371.176;1282.5151;0.0;0.0;1838.2656
665.615;1.0360595;1.0011461;2130.6665;-6502.9717;-4372.305;1259.7843;0.0;0.0;1838.2656
665.62;1.0365516;0.9947087;2132.8496;-6508.092;-4375.242;1219.9171;0.0;0.0;1838.2656
665.625;1.0371231;0.9850175;2135.2588;-6515.791;-4380.532;1161.6538;0.0;0.0;1838.2656
665.63;1.0376863;0.9720721;2137.3867;-6525.7666;-4388.38;1086.0067;0.0;0.0;1838.2656
665.635;1.0380698;0.9573461;2138.558;-6536.38;-4397.822;1002.4531;0.0;0.0;1838.2656
665.64;1.0381413;0.9415889;2138.4658;-6547.6655;-4409.1997;915.7397;0.0;0.0;1838.2656
665.645;1.0379221;0.9264979;2137.3914;-6557.9526;-4420.5615;834.6648;0.0;0.0;1838.2656
665.65;1.0375483;0.91299367;2135.8984;-6566.6377;-4430.7393;763.17773;0.0;0.0;1838.2656
665.655;1.0371532;0.9014889;2134.3977;-6573.4067;-4439.009;702.7327;0.0;0.0;1838.2656
665.66;1.0367886;0.8915637;2132.9583;-6579.0776;-4446.119;650.8764;0.0;0.0;1838.2656
665.665;1.0364294;0.8833989;2131.4575;-6583.373;-4451.9155;608.85034;0.0;0.0;1838.2656
665.67;1.0360444;0.87734455;2129.831;-6585.793;-4455.962;578.7148;0.0;0.0;1838.2656
665.675;1.0356457;0.8736809;2128.3108;-6585.995;-4457.6846;561.5509;0.0;0.0;1838.2656
665.68;1.0353489;0.8713397;2127.4507;-6585.637;-4458.1865;550.36;0.0;0.0;1838.2656
665.685;1.0352924;0.86918896;2127.587;-6585.911;-4458.324;538.2266;0.0;0.0;1838.2656
665.69;1.0354422;0.86679363;2128.1418;-6586.953;-4458.8115;523.90704;0.0;0.0;1838.2656
665.695;1.0355114;0.86477774;2127.9048;-6587.6426;-4459.738;513.2641;0.0;0.0;1838.2656
665.7;1.0352417;0.8645788;2126.2612;-6586.8286;-4460.5674;515.4538;0.0;0.0;1838.2656
665.705;1.0346556;0.86800027;2123.622;-6582.783;-4459.161;539.601;0.0;0.0;1838.2656
665.71;1.0339602;0.8747266;2120.8782;-6576.473;-4455.5947;582.18304;0.0;0.0;1838.2656
665.715;1.0333815;0.8846847;2118.9207;-6567.6846;-4448.7637;641.0151;0.0;0.0;1838.2656
665.72;1.0331112;0.8957038;2118.3538;-6558.6978;-4440.3438;702.91705;0.0;0.0;1838.2656
665.725;1.0332105;0.90634865;2119.1309;-6550.2173;-4431.0864;760.06696;0.0;0.0;1838.2656
665.73;1.033554;0.9152845;2120.5747;-6543.4326;-4422.858;806.4587;0.0;0.0;1838.2656
665.735;1.0339298;0.9220793;2121.9885;-6538.3647;-4416.376;841.10315;0.0;0.0;1838.2656
665.74;1.0342472;0.92700154;2123.3286;-6534.5654;-4411.237;865.568;0.0;0.0;1838.2656
665.745;1.0346031;0.92969;2125.0583;-6532.4673;-4407.409;876.93494;0.0;0.0;1838.2656
665.75;1.0351168;0.9293643;2127.488;-6532.764;-4405.2764;870.27936;0.0;0.0;1838.2656
665.755;1.0357912;0.92546695;2130.4385;-6535.8525;-4405.414;842.8853;0.0;0.0;1838.2656
665.76;1.036525;0.91764015;2133.4893;-6541.9033;-4408.414;793.62067;0.0;0.0;1838.2656
665.765;1.0372148;0.9065127;2136.1863;-6550.3877;-4414.201;726.8608;0.0;0.0;1838.2656
665.77;1.0377448;0.8924457;2138.0728;-6561.2676;-4423.195;645.51117;0.0;0.0;1838.2656
665.775;1.0380164;0.8770561;2138.7876;-6572.9507;-4434.163;559.2113;0.0;0.0;1838.2656
665.78;1.037968;0.86242145;2138.1587;-6583.6743;-4445.5156;479.7617;0.0;0.0;1838.2656
665.785;1.0375967;0.8494801;2136.2905;-6593.3086;-4457.018;412.12894;0.0;0.0;1838.2656
665.79;1.0369718;0.8400855;2133.4937;-6599.687;-4466.1934;365.91357;0.0;0.0;1838.2656
665.795;1.0361818;0.8350641;2130.1514;-6602.692;-4472.5405;344.90628;0.0;0.0;1838.2656
665.8;1.0353304;0.8347017;2126.7126;-6601.9434;-4475.2305;349.785;0.0;0.0;1838.2656
665.805;1.0345374;0.83819145;2123.7407;-6598.6865;-4474.946;374.97418;0.0;0.0;1838.2656
665.81;1.0339584;0.8447719;2121.8684;-6593.1553;-4471.287;415.00864;0.0;0.0;1838.2656
665.815;1.0337354;0.85223526;2121.5884;-6587.7695;-4466.181;456.72748;0.0;0.0;1838.2656
665.82;1.033936;0.8587385;2122.9375;-6583.7334;-4460.796;489.89328;0.0;0.0;1838.2656
665.825;1.0344715;0.8630037;2125.35;-6581.4785;-4456.1284;508.5898;0.0;0.0;1838.2656
665.83;1.0351304;0.8637463;2127.8936;-6582.588;-4454.6943;507.59814;0.0;0.0;1838.2656
665.835;1.035674;0.86204106;2129.7312;-6585.336;-4455.6045;494.5188;0.0;0.0;1838.2656
665.84;1.0359607;0.85897493;2130.4897;-6588.668;-4458.178;476.0929;0.0;0.0;1838.2656
665.845;1.0359762;0.8558177;2130.2603;-6591.874;-4461.614;459.14023;0.0;0.0;1838.2656
665.85;1.0357962;0.8534999;2129.372;-6593.8804;-4464.5083;448.1343;0.0;0.0;1838.2656
665.855;1.0355082;0.8523301;2128.1538;-6595.035;-4466.8813;444.11978;0.0;0.0;1838.2656
665.86;1.0351819;0.85299337;2126.8164;-6594.5713;-4467.755;450.45233;0.0;0.0;1838.2656
665.865;1.0348452;0.85512763;2125.4082;-6593.044;-4467.6357;465.03882;0.0;0.0;1838.2656
665.87;1.0344954;0.85915554;2123.9714;-6589.831;-4465.8594;490.1253;0.0;0.0;1838.2656
665.875;1.0341614;0.8647628;2122.7085;-6585.379;-4462.6704;523.5741;0.0;0.0;1838.2656
665.88;1.0339189;0.87151814;2121.9307;-6580.0234;-4458.093;562.38403;0.0;0.0;1838.2656
665.885;1.0338346;0.87853676;2121.8333;-6574.5938;-4452.7607;601.2854;0.0;0.0;1838.2656
665.89;1.0339168;0.8850951;2122.3096;-6569.6963;-4447.3867;636.5007;0.0;0.0;1838.2656
665.895;1.0340949;0.89067614;2123.09;-6565.416;-4442.326;665.71783;0.0;0.0;1838.2656
665.9;1.0343083;0.8951895;2123.9297;-6561.989;-4438.059;688.929;0.0;0.0;1838.2656
665.905;1.0345043;0.8985261;2124.6606;-6559.594;-4434.9336;705.8674;0.0;0.0;1838.2656
665.91;1.0346582;0.90108037;2125.1963;-6557.4805;-4432.284;718.88257;0.0;0.0;1838.2656
665.915;1.0347569;0.9030722;2125.514;-6555.542;-4430.0283;729.2316;0.0;0.0;1838.2656
665.92;1.0348097;0.90453666;2125.6907;-6554.048;-4428.3574;736.95465;0.0;0.0;1838.2656
665.925;1.0348504;0.9057042;2125.9028;-6552.7007;-4426.798;742.96893;0.0;0.0;1838.2656
665.93;1.0349334;0.9064596;2126.371;-6551.5596;-4425.1885;746.1986;0.0;0.0;1838.2656
665.935;1.0351064;0.9063475;2127.2446;-6551.073;-4423.8286;743.8331;0.0;0.0;1838.2656
665.94;1.0353832;0.90450513;2128.497;-6552.22;-4423.723;731.16797;0.0;0.0;1838.2656
665.945;1.035717;0.90078;2129.795;-6555.2;-4425.4053;708.0291;0.0;0.0;1838.2656
665.95;1.035985;0.8958468;2130.6614;-6559.0723;-4428.411;679.09033;0.0;0.0;1838.2656
665.955;1.0360851;0.8908113;2130.79;-6562.5854;-4431.7954;651.06354;0.0;0.0;1838.2656
665.96;1.0359929;0.88608986;2130.2334;-6565.7754;-4435.542;626.1388;0.0;0.0;1838.2656
665.965;1.0357758;0.8828384;2129.33;-6567.509;-4438.1787;610.01447;0.0;0.0;1838.2656
665.97;1.0355382;0.8805393;2128.502;-6568.644;-4440.142;598.9915;0.0;0.0;1838.2656
665.975;1.0353717;0.8792335;2128.0154;-6569.2354;-4441.2197;592.76337;0.0;0.0;1838.2656
665.98;1.0353068;0.8782821;2127.893;-6569.8613;-4441.9683;587.76135;0.0;0.0;1838.2656
665.985;1.0353093;0.8774241;2127.894;-6570.713;-4442.819;583.0277;0.0;0.0;1838.2656
665.99;1.03529;0.87690747;2127.6465;-6571.343;-4443.6963;580.6736;0.0;0.0;1838.2656
665.995;1.0351651;0.8773212;2126.9106;-6571.1885;-4444.278;584.42676;0.0;0.0;1838.2656
666.0;1.0349212;0.87933975;2125.799;-6569.52;-4443.7207;597.7819;0.0;0.0;1838.2656
666.005;1.0346404;0.8826724;2124.7188;-6566.8887;-4442.17;618.3216;0.0;0.0;1838.2656
666.01;1.0344361;0.88707983;2124.071;-6563.698;-4439.627;643.9229;0.0;0.0;1838.2656
666.015;1.03438;0.89145064;2124.1016;-6560.8315;-4436.73;667.966;0.0;0.0;1838.2656
666.02;1.0345086;0.89551103;2124.9133;-6558.2197;-4433.3066;688.7346;0.0;0.0;1838.2656
666.025;1.03483;0.8973486;2126.5066;-6557.833;-4431.326;695.682;0.0;0.0;1838.2656
666.03;1.0353242;0.89692867;2128.748;-6559.299;-4430.551;688.88336;0.0;0.0;1838.2656
666.035;1.0359339;0.8931789;2131.2913;-6563.6143;-4432.323;663.11755;0.0;0.0;1838.2656
666.04;1.0365375;0.886626;2133.6108;-6569.9893;-4436.3784;622.3405;0.0;0.0;1838.2656
666.045;1.037003;0.87780714;2135.208;-6578.2275;-4443.0195;570.51196;0.0;0.0;1838.2656
666.05;1.037232;0.86809736;2135.7192;-6586.891;-4451.172;515.94226;0.0;0.0;1838.2656
666.055;1.037159;0.8589365;2134.9797;-6594.901;-4459.921;466.90073;0.0;0.0;1838.2656
666.06;1.0367864;0.852131;2133.0762;-6600.9424;-4467.866;433.17706;0.0;0.0;1838.2656
666.065;1.0361685;0.84888196;2130.3022;-6604.1143;-4473.812;420.80698;0.0;0.0;1838.2656
666.07;1.0354004;0.8498882;2127.0083;-6603.83;-4476.822;432.9442;0.0;0.0;1838.2656
666.075;1.0345526;0.85547614;2123.4595;-6600.369;-4476.9097;470.85837;0.0;0.0;1838.2656
666.08;1.0336888;0.86590827;2119.9639;-6593.0317;-4473.068;535.3805;0.0;0.0;1838.2656
666.085;1.0328987;0.8805907;2116.9202;-6582.582;-4465.662;622.4384;0.0;0.0;1838.2656
666.09;1.0322882;0.8983775;2114.744;-6569.947;-4455.203;724.88153;0.0;0.0;1838.2656
666.095;1.031944;0.91787654;2113.7573;-6556.3623;-4442.605;834.3879;0.0;0.0;1838.2656
666.1;1.0319307;0.93721783;2114.2085;-6543.196;-4428.9873;940.1491;0.0;0.0;1838.2656
666.105;1.0322903;0.9542923;2116.1807;-6532.494;-4416.3135;1030.3668;0.0;0.0;1838.2656
666.11;1.0329926;0.9678114;2119.3196;-6524.72;-4405.4004;1098.6442;0.0;0.0;1838.2656
666.115;1.0338691;0.9765788;2122.8584;-6520.864;-4398.0054;1139.9169;0.0;0.0;1838.2656
666.12;1.0347097;0.98130965;2126.0022;-6519.8564;-4393.8545;1159.7189;0.0;0.0;1838.2656
666.125;1.0353525;0.9824234;2128.1826;-6521.3125;-4393.13;1161.5006;0.0;0.0;1838.2656
666.13;1.0356966;0.9821583;2129.079;-6523.074;-4393.995;1158.2454;0.0;0.0;1838.2656
666.135;1.0357078;0.98183286;2128.6719;-6524.214;-4395.542;1157.2649;0.0;0.0;1838.2656
666.14;1.0354403;0.9820194;2127.3599;-6524.7407;-4397.381;1160.9181;0.0;0.0;1838.2656
666.145;1.0350537;0.98388135;2125.8792;-6523.5093;-4397.63;1174.1475;0.0;0.0;1838.2656
666.15;1.0347532;0.9865672;2125.0522;-6521.7754;-4396.723;1190.6133;0.0;0.0;1838.2656
666.155;1.034719;0.98908186;2125.5134;-6520.1465;-4394.633;1203.5588;0.0;0.0;1838.2656
