time;temperature;pressure;kinetic_energy;potential_energy;total_energy;virial;msd;diffusion;volume
320.005;1.1758406;1.1575936;2419.5974;-6474.6255;-4055.028;1544.699;0.0;0.0;1838.2656
320.01;1.1750828;1.1493145;2416.5398;-6479.2217;-4062.682;1505.1567;0.0;0.0;1838.2656
320.015;1.1743212;1.1448873;2413.5078;-6480.843;-4067.335;1486.8054;0.0;0.0;1838.2656
320.02;1.1736072;1.1440282;2410.676;-6480.082;-4069.406;1487.7307;0.0;0.0;1838.2656
320.025;1.172977;1.146603;2408.2236;-6476.625;-4068.4014;1506.8353;0.0;0.0;1838.2656
320.03;1.1724796;1.1521842;2406.3945;-6470.7217;-4064.3271;1541.2728;0.0;0.0;1838.2656
320.035;1.1721891;1.1592535;2405.5981;-6464.176;-4058.5776;1581.8511;0.0;0.0;1838.2656
320.04;1.1722133;1.1664103;2406.0903;-6457.8945;-4051.8042;1620.3351;0.0;0.0;1838.2656
320.045;1.172509;1.1722374;2407.274;-6453.501;-4046.227;1650.1036;0.0;0.0;1838.2656
320.05;1.1727728;1.177364;2407.8323;-6449.5273;-4041.695;1677.2584;0.0;0.0;1838.2656
320.055;1.1727085;1.183121;2407.0671;-6444.6885;-4037.6213;1710.5376;0.0;0.0;1838.2656
320.06;1.1723523;1.1904645;2405.4849;-6438.5;-4033.0151;1754.2001;0.0;0.0;1838.2656
320.065;1.1719419;1.1997535;2403.9673;-6430.738;-4026.7705;1808.4628;0.0;0.0;1838.2656
320.07;1.1716601;1.210373;2403.205;-6421.8936;-4018.6885;1868.5514;0.0;0.0;1838.2656
320.075;1.1716477;1.2208155;2403.67;-6413.4688;-4009.7988;1925.21;0.0;0.0;1838.2656
320.08;1.171972;1.2292082;2405.4705;-6407.106;-4001.6355;1967.8928;0.0;0.0;1838.2656
320.085;1.1725796;1.2345666;2408.1406;-6403.633;-3995.4922;1992.1024;0.0;0.0;1838.2656
320.09;1.1732701;1.2367376;2410.7112;-6402.338;-3991.6267;1998.9346;0.0;0.0;1838.2656
320.095;1.1737735;1.2364384;2412.218;-6402.863;-3990.6448;1994.2708;0.0;0.0;1838.2656
320.1;1.1739322;1.2355826;2412.3481;-6403.3457;-3990.9976;1989.2908;0.0;0.0;1838.2656
320.105;1.1737983;1.2350256;2411.582;-6403.2856;-3991.7036;1987.7515;0.0;0.0;1838.2656
320.11;1.1735826;1.2352961;2410.8533;-6402.4136;-3991.5603;1990.7007;0.0;0.0;1838.2656
320.115;1.1735164;1.236041;2410.9126;-6401.008;-3990.0952;1994.6898;0.0;0.0;1838.2656
320.12;1.1736829;1.2356218;2411.6865;-6400.9624;-3989.276;1990.8301;0.0;0.0;1838.2656
320.125;1.173921;1.2341689;2412.4536;-6401.4907;-3989.037;1981.2838;0.0;0.0;1838.2656
320.13;1.1740662;1.2318066;2412.9573;-6402.707;-3989.7498;1967.2491;0.0;0.0;1838.2656
320.135;1.1742065;1.2283361;2413.8386;-6404.675;-3990.8362;1946.3467;0.0;0.0;1838.2656
320.14;1.1745589;1.2225708;2415.7034;-6408.9854;-3993.282;1910.8226;0.0;0.0;1838.2656
320.145;1.1751347;1.214315;2418.0693;-6414.999;-3996.9297;1860.562;0.0;0.0;1838.2656
320.15;1.1756321;1.2036927;2419.5923;-6423.022;-4003.4297;1798.9358;0.0;0.0;1838.2656
320.155;1.1757346;1.1927682;2419.4348;-6430.916;-4011.4812;1739.0045;0.0;0.0;1838.2656
320.16;1.1754298;1.1835612;2417.9395;-6437.009;-4019.0693;1691.2206;0.0;0.0;1838.2656
320.165;1.1749364;1.1770425;2416.023;-6440.6953;-4024.6724;1659.1044;0.0;0.0;1838.2656
320.17;1.1744751;1.1725599;2414.3948;-6443.4043;-4029.0095;1637.6396;0.0;0.0;1838.2656
320.175;1.1741499;1.1702484;2413.3333;-6444.6562;-4031.323;1627.0159;0.0;0.0;1838.2656
320.18;1.1739717;1.168879;2412.7803;-6445.5464;-4032.766;1620.5698;0.0;0.0;1838.2656
320.185;1.1738815;1.1683818;2412.4214;-6446.0757;-4033.6543;1618.5458;0.0;0.0;1838.2656
320.19;1.1737823;1.1686957;2411.9182;-6446.042;-4034.1238;1621.283;0.0;0.0;1838.2656
320.195;1.1736189;1.1701025;2411.1772;-6445.076;-4033.899;1630.523;0.0;0.0;1838.2656
320.2;1.1734194;1.1722095;2410.3682;-6443.8477;-4033.4795;1643.7611;0.0;0.0;1838.2656
320.205;1.1732376;1.175381;2409.6467;-6441.7266;-4032.0798;1662.694;0.0;0.0;1838.2656
320.21;1.1730852;1.1797357;2408.9712;-6438.505;-4029.5337;1688.0603;0.0;0.0;1838.2656
320.215;1.172928;1.184512;2408.2627;-6435.111;-4026.8481;1715.8176;0.0;0.0;1838.2656
320.22;1.1727626;1.1901494;2407.554;-6431.0244;-4023.4705;1748.3246;0.0;0.0;1838.2656
320.225;1.1726141;1.1964293;2407.055;-6426.186;-4019.131;1783.9543;0.0;0.0;1838.2656
320.23;1.1725659;1.2025765;2407.2053;-6421.7124;-4014.507;1817.5547;0.0;0.0;1838.2656
320.235;1.172754;1.2073476;2408.5034;-6418.411;-4009.9077;1841.2703;0.0;0.0;1838.2656
320.24;1.173257;1.2094762;2410.9602;-6417.5977;-4006.6375;1848.0953;0.0;0.0;1838.2656
320.245;1.1739581;1.2079388;2413.8066;-6419.876;-4006.0693;1833.9235;0.0;0.0;1838.2656
320.25;1.1745785;1.2036427;2415.9028;-6423.958;-4008.0552;1806.0392;0.0;0.0;1838.2656
320.255;1.1748748;1.1979856;2416.5825;-6428.704;-4012.1216;1773.4828;0.0;0.0;1838.2656
320.26;1.1748121;1.1926725;2415.9346;-6432.784;-4016.8496;1745.4772;0.0;0.0;1838.2656
320.265;1.1744931;1.1886402;2414.415;-6435.8213;-4021.4062;1726.2794;0.0;0.0;1838.2656
320.27;1.1740425;1.1874194;2412.525;-6436.339;-4023.814;1723.3268;0.0;0.0;1838.2656
320.275;1.1735879;1.1881043;2410.8545;-6435.6235;-4024.769;1730.4447;0.0;0.0;1838.2656
320.28;1.1732934;1.1907282;2410.0928;-6433.5005;-4023.4077;1746.4387;0.0;0.0;1838.2656
320.285;1.1733118;1.1930454;2410.606;-6432.382;-4021.776;1758.1909;0.0;0.0;1838.2656
320.29;1.1736128;1.1943865;2411.925;-6432.5117;-4020.5867;1762.949;0.0;0.0;1838.2656
320.295;1.1739522;1.1945395;2412.9365;-6433.485;-4020.5483;1761.7701;0.0;0.0;1838.2656
320.3;1.1740434;1.1943486;2412.7622;-6434.789;-4022.0269;1761.0653;0.0;0.0;1838.2656
320.305;1.1738027;1.1954952;2411.4673;-6434.9556;-4023.4883;1769.9786;0.0;0.0;1838.2656
320.31;1.1733851;1.1988401;2409.7847;-6432.741;-4022.9565;1791.7905;0.0;0.0;1838.2656
320.315;1.1729932;1.2039151;2408.4546;-6429.158;-4020.7036;1822.438;0.0;0.0;1838.2656
320.32;1.172769;1.2095829;2407.884;-6425.524;-4017.64;1854.8358;0.0;0.0;1838.2656
320.325;1.1727512;1.2150097;2408.1526;-6422.037;-4013.8845;1884.2267;0.0;0.0;1838.2656
320.33;1.1729332;1.2195427;2409.2021;-6418.9463;-4009.7441;1907.1265;0.0;0.0;1838.2656
320.335;1.1732808;1.221962;2410.767;-6418.0312;-4007.2642;1917.3376;0.0;0.0;1838.2656
320.34;1.1736834;1.2221602;2412.2344;-6418.5615;-4006.3271;1915.4966;0.0;0.0;1838.2656
320.345;1.1739414;1.2211773;2412.8232;-6419.812;-4006.9888;1908.8982;0.0;0.0;1838.2656
320.35;1.1738932;1.2203255;2412.0513;-6420.5063;-4008.455;1905.7449;0.0;0.0;1838.2656
320.355;1.1735016;1.2215326;2410.051;-6419.023;-4008.972;1916.4019;0.0;0.0;1838.2656
320.36;1.1729047;1.225267;2407.5571;-6415.479;-4007.9219;1941.9847;0.0;0.0;1838.2656
320.365;1.1723331;1.2320513;2405.5437;-6409.199;-4003.6555;1983.4249;0.0;0.0;1838.2656
320.37;1.1720176;1.2401557;2404.7646;-6402.1074;-3997.3428;2029.6772;0.0;0.0;1838.2656
320.375;1.1720574;1.247842;2405.3716;-6395.884;-3990.5122;2070.8516;0.0;0.0;1838.2656
320.38;1.172395;1.253705;2406.9993;-6391.5728;-3984.5735;2099.9297;0.0;0.0;1838.2656
320.385;1.1729004;1.2569652;2409.1392;-6389.3823;-3980.2432;2113.6294;0.0;0.0;1838.2656
320.39;1.1734638;1.2573832;2411.4417;-6389.439;-3977.9973;2111.3298;0.0;0.0;1838.2656
320.395;1.1740309;1.2552726;2413.7227;-6391.039;-3977.3164;2095.1284;0.0;0.0;1838.2656
320.4;1.1745656;1.2502367;2415.817;-6395.0356;-3979.2188;2063.1677;0.0;0.0;1838.2656
320.405;1.175021;1.2427046;2417.564;-6401.08;-3983.516;2018.1357;0.0;0.0;1838.2656
320.41;1.1753722;1.233314;2418.9229;-6408.5645;-3989.6416;1963.6309;0.0;0.0;1838.2656
320.415;1.1756355;1.2227378;2419.9883;-6416.795;-3996.8066;1903.1741;0.0;0.0;1838.2656
320.42;1.1758395;1.2114195;2420.8071;-6425.651;-4004.8438;1839.1178;0.0;0.0;1838.2656
320.425;1.1759703;1.1994336;2421.2144;-6435.458;-4014.2437;1772.2041;0.0;0.0;1838.2656
320.43;1.1759604;1.1877546;2420.9233;-6444.922;-4023.9985;1708.3787;0.0;0.0;1838.2656
320.435;1.1757447;1.1778258;2419.7358;-6452.952;-4033.2163;1655.9985;0.0;0.0;1838.2656
320.44;1.1753043;1.1702865;2417.612;-6459.0664;-4041.4543;1618.6687;0.0;0.0;1838.2656
320.445;1.1746491;1.1662706;2414.6758;-6462.6406;-4047.9648;1602.394;0.0;0.0;1838.2656
320.45;1.173843;1.1666222;2411.2632;-6462.628;-4051.3647;1611.1582;0.0;0.0;1838.2656
320.455;1.1729972;1.1714816;2407.9148;-6459.0493;-4051.1345;1644.6538;0.0;0.0;1838.2656
320.46;1.1722655;1.1800644;2405.2305;-6452.7744;-4047.544;1697.3549;0.0;0.0;1838.2656
320.465;1.1717746;1.1914084;2403.663;-6444.3047;-4040.6416;1763.0494;0.0;0.0;1838.2656
320.47;1.1716026;1.203363;2403.4233;-6435.935;-4032.5117;1829.4557;0.0;0.0;1838.2656
320.475;1.1717573;1.2142488;2404.5205;-6428.912;-4024.3916;1887.2942;0.0;0.0;1838.2656
320.48;1.1722202;1.2227931;2406.7554;-6423.967;-4017.2114;1929.9446;0.0;0.0;1838.2656
320.485;1.1728904;1.2277467;2409.6194;-6422.0513;-4012.432;1951.5352;0.0;0.0;1838.2656
320.49;1.1736053;1.2291099;2412.3662;-6422.98;-4010.6138;1953.559;0.0;0.0;1838.2656
320.495;1.1741693;1.2277033;2414.2656;-6425.548;-4011.2822;1942.0029;0.0;0.0;1838.2656
320.5;1.1744479;1.2247549;2414.9727;-6428.9463;-4013.9736;1924.3293;0.0;0.0;1838.2656
320.505;1.1744448;1.2216473;2414.6904;-6431.7974;-4017.107;1907.7559;0.0;0.0;1838.2656
320.51;1.1742754;1.2192832;2413.9146;-6433.4966;-4019.582;1896.2701;0.0;0.0;1838.2656
320.515;1.1740663;1.2172798;2413.105;-6435.175;-4022.0698;1886.8411;0.0;0.0;1838.2656
320.52;1.1739018;1.2162659;2412.5283;-6435.8823;-4023.354;1882.403;0.0;0.0;1838.2656
320.525;1.1738125;1.2152222;2412.2163;-6436.8916;-4024.6753;1877.2711;0.0;0.0;1838.2656
320.53;1.173766;1.2148073;2411.9905;-6437.086;-4025.0955;1875.4346;0.0;0.0;1838.2656
320.535;1.1737007;1.2145538;2411.6074;-6437.113;-4025.5054;1874.803;0.0;0.0;1838.2656
320.54;1.1735653;1.2150081;2410.9053;-6436.7705;-4025.8652;1878.7128;0.0;0.0;1838.2656
320.545;1.1733454;1.2165045;2409.8835;-6435.5635;-4025.68;1889.0077;0.0;0.0;1838.2656
320.55;1.1730647;1.219447;2408.712;-6432.914;-4024.2021;1907.5787;0.0;0.0;1838.2656
320.555;1.1727939;1.2238234;2407.6992;-6429.0215;-4021.3223;1933.7394;0.0;0.0;1838.2656
320.56;1.172614;1.229056;2407.1387;-6424.3047;-4017.166;1963.717;0.0;0.0;1838.2656
320.565;1.1725696;1.2342376;2407.0771;-6420.0957;-4013.0186;1992.4152;0.0;0.0;1838.2656
320.57;1.1726199;1.2391979;2407.2178;-6416.1426;-4008.9248;2019.4891;0.0;0.0;1838.2656
320.575;1.1726532;1.2443506;2407.1338;-6411.8164;-4004.6826;2048.0732;0.0;0.0;1838.2656
320.58;1.1725807;1.2500198;2406.579;-6407.0107;-4000.4316;2080.447;0.0;0.0;1838.2656
320.585;1.1723913;1.2566663;2405.6924;-6401.497;-3995.8047;2118.8748;0.0;0.0;1838.2656
320.59;1.1721882;1.2644322;2405.024;-6395.2656;-3990.2417;2163.0388;0.0;0.0;1838.2656
320.595;1.1721338;1.2725979;2405.1045;-6388.6777;-3983.5732;2207.91;0.0;0.0;1838.2656
320.6;1.1723044;1.2799306;2406.1592;-6383.2188;-3977.0596;2246.2388;0.0;0.0;1838.2656
320.605;1.1727183;1.28537;2408.212;-6379.5605;-3971.3486;2272.1306;0.0;0.0;1838.2656
320.61;1.173353;1.2871652;2411.0588;-6379.4307;-3968.3718;2276.337;0.0;0.0;1838.2656
320.615;1.1740991;1.285622;2414.045;-6381.961;-3967.916;2261.8545;0.0;0.0;1838.2656
320.62;1.174733;1.280893;2416.258;-6386.7026;-3970.4446;2231.3486;0.0;0.0;1838.2656
320.625;1.1750624;1.2745155;2417.1387;-6392.5483;-3975.4097;2194.417;0.0;0.0;1838.2656
320.63;1.1750498;1.2681137;2416.711;-6397.836;-3981.125;2159.9675;0.0;0.0;1838.2656
320.635;1.174774;1.2632233;2415.4363;-6401.3945;-3985.9583;2135.5474;0.0;0.0;1838.2656
320.64;1.1743978;1.2599536;2414.0127;-6403.729;-3989.7163;2120.3628;0.0;0.0;1838.2656
320.645;1.1740965;1.257971;2413.1426;-6405.1187;-3991.976;2111.1697;0.0;0.0;1838.2656
320.65;1.1740162;1.2561952;2413.2441;-6406.67;-3993.4258;2101.173;0.0;0.0;1838.2656
320.655;1.1741798;1.2535039;2414.1782;-6409.5327;-3995.3545;2084.463;0.0;0.0;1838.2656
320.66;1.1744673;1.2494438;2415.33;-6413.555;-3998.225;2059.7686;0.0;0.0;1838.2656
320.665;1.1746932;1.2443976;2416.012;-6418.1396;-4002.1277;2030.5763;0.0;0.0;1838.2656
320.67;1.1747309;1.239405;2415.9006;-6422.749;-4006.8484;2003.266;0.0;0.0;1838.2656
320.675;1.1745784;1.235256;2415.042;-6426.2793;-4011.2373;1982.1019;0.0;0.0;1838.2656
320.68;1.1742622;1.2330433;2413.542;-6428.3613;-4014.8193;1972.8997;0.0;0.0;1838.2656
320.685;1.1738139;1.2331874;2411.5488;-6428.2666;-4016.7178;1977.6805;0.0;0.0;1838.2656
320.69;1.1732866;1.2358488;2409.433;-6426.4077;-4016.9746;1996.5887;0.0;0.0;1838.2656
320.695;1.1728231;1.2407668;2407.8486;-6423.0464;-4015.1978;2026.8796;0.0;0.0;1838.2656
320.7;1.1725937;1.246489;2407.3882;-6419.363;-4011.9746;2059.3577;0.0;0.0;1838.2656
320.705;1.1726834;1.2522025;2408.121;-6415.737;-4007.6157;2089.4;0.0;0.0;1838.2656
320.71;1.1730053;1.2561429;2409.5342;-6413.7017;-4004.1675;2108.3047;0.0;0.0;1838.2656
320.715;1.1733768;1.258236;2410.8716;-6413.044;-4002.1724;2117.173;0.0;0.0;1838.2656
320.72;1.1736321;1.2588497;2411.6826;-6413.491;-4001.8086;2118.9353;0.0;0.0;1838.2656
320.725;1.1737489;1.258623;2412.0684;-6414.1157;-4002.0474;2116.9138;0.0;0.0;1838.2656
320.73;1.1738092;1.2577711;2412.3315;-6415.09;-4002.7583;2111.6895;0.0;0.0;1838.2656
320.735;1.1738768;1.2563491;2412.6763;-6416.2686;-4003.5923;2103.1572;0.0;0.0;1838.2656
320.74;1.1739769;1.2539095;2413.1387;-6417.971;-4004.8325;2088.7788;0.0;0.0;1838.2656
320.745;1.1740905;1.2509692;2413.5488;-6419.805;-4006.2563;2071.7434;0.0;0.0;1838.2656
320.75;1.1741488;1.2470931;2413.647;-6422.458;-4008.811;2050.1714;0.0;0.0;1838.2656
320.755;1.1740994;1.2436616;2413.271;-6424.2646;-4010.9937;2031.9994;0.0;0.0;1838.2656
320.76;1.1739262;1.2409803;2412.3865;-6424.9873;-4012.6008;2018.9814;0.0;0.0;1838.2656
320.765;1.1736337;1.239341;2411.0713;-6424.731;-4013.6597;2012.5714;0.0;0.0;1838.2656
320.77;1.1732715;1.2393231;2409.645;-6422.8936;-4013.2485;2015.3253;0.0;0.0;1838.2656
320.775;1.172963;1.2402749;2408.6934;-6420.3867;-4011.6934;2022.4773;0.0;0.0;1838.2656
320.78;1.1728637;1.2416252;2408.6943;-6417.6973;-4009.003;2029.9219;0.0;0.0;1838.2656
320.785;1.1730182;1.2419401;2409.561;-6415.8086;-4006.2476;2029.9254;0.0;0.0;1838.2656
320.79;1.1733102;1.2407676;2410.7446;-6415.5513;-4004.8066;2021.092;0.0;0.0;1838.2656
320.795;1.1735927;1.2385284;2411.758;-6415.3945;-4003.6365;2006.7166;0.0;0.0;1838.2656
320.8;1.1737927;1.234894;2412.4756;-6416.467;-4003.9912;1985.2384;0.0;0.0;1838.2656
320.805;1.1739408;1.23033;2413.1208;-6418.1157;-4004.9949;1958.7783;0.0;0.0;1838.2656
320.81;1.1741219;1.2245592;2414.0562;-6420.922;-4006.8657;1925.0826;0.0;0.0;1838.2656
320.815;1.1744288;1.2170168;2415.7046;-6425.2285;-4009.524;1880.1917;0.0;0.0;1838.2656
320.82;1.1749601;1.206656;2418.2788;-6432.1543;-4013.8755;1817.9053;0.0;0.0;1838.2656
320.825;1.1756852;1.1924883;2421.3696;-6442.67;-4021.3003;1733.5914;0.0;0.0;1838.2656
320.83;1.1763989;1.175159;2423.9583;-6455.798;-4031.8396;1632.8468;0.0;0.0;1838.2656
320.835;1.1768136;1.156463;2425.0088;-6469.83;-4044.8213;1527.6412;0.0;0.0;1838.2656
320.84;1.1767533;1.1387335;2424.079;-6482.7656;-4058.6865;1431.726;0.0;0.0;1838.2656
320.845;1.1762224;1.1241988;2421.3926;-6493.3677;-4071.975;1356.9429;0.0;0.0;1838.2656
320.85;1.175353;1.1146513;2417.5708;-6500.0156;-4082.4448;1311.9341;0.0;0.0;1838.2656
320.855;1.1743207;1.110847;2413.2935;-6502.546;-4089.2524;1299.5089;0.0;0.0;1838.2656
320.86;1.1732761;1.1133138;2409.062;-6500.3203;-4091.2583;1321.5751;0.0;0.0;1838.2656
320.865;1.1723025;1.121418;2405.185;-6493.9795;-4088.7944;1374.0221;0.0;0.0;1838.2656
320.87;1.1714656;1.1342192;2401.9875;-6484.5117;-4082.5242;1451.0131;0.0;0.0;1838.2656
320.875;1.170861;1.1503509;2399.9062;-6473.0654;-4073.1592;1544.139;0.0;0.0;1838.2656
320.88;1.1705922;1.167745;2399.2441;-6461.689;-4062.4448;1641.3881;0.0;0.0;1838.2656
320.885;1.1706634;1.185547;2399.728;-6449.959;-4050.231;1738.595;0.0;0.0;1838.2656
320.89;1.1708997;1.2023914;2400.546;-6439.0684;-4038.5225;1829.8523;0.0;0.0;1838.2656
320.895;1.1710861;1.2184554;2401.0;-6428.582;-4027.582;1917.5343;0.0;0.0;1838.2656
320.9;1.1711378;1.2340161;2401.0273;-6417.982;-4016.9546;2003.2933;0.0;0.0;1838.2656
320.905;1.1711421;1.2485608;2401.1392;-6408.117;-4006.978;2083.281;0.0;0.0;1838.2656
320.91;1.1712743;1.2617013;2402.1228;-6399.079;-3996.9563;2153.7812;0.0;0.0;1838.2656
320.915;1.1717362;1.2717435;2404.6697;-6392.524;-3987.8542;2204.0679;0.0;0.0;1838.2656
320.92;1.1726276;1.2764467;2408.9053;-6390.0493;-3981.144;2221.5334;0.0;0.0;1838.2656
320.925;1.1738509;1.2743112;2414.0254;-6393.071;-3979.0454;2199.5166;0.0;0.0;1838.2656
320.93;1.1750787;1.2657168;2418.6765;-6400.6025;-3981.926;2142.8179;0.0;0.0;1838.2656
320.935;1.1760001;1.2522587;2421.7893;-6411.0117;-3989.2224;2062.3733;0.0;0.0;1838.2656
320.94;1.1764508;1.2359049;2423.0063;-6423.052;-4000.0454;1969.7518;0.0;0.0;1838.2656
320.945;1.1764722;1.2189988;2422.7612;-6434.794;-4012.0327;1877.0084;0.0;0.0;1838.2656
320.95;1.1762596;1.2028004;2421.8909;-6445.5615;-4023.6707;1789.4185;0.0;0.0;1838.2656
320.955;1.176009;1.1878715;2420.9226;-6455.081;-4034.1584;1709.0244;0.0;0.0;1838.2656
320.96;1.1757354;1.1743964;2419.6072;-6463.503;-4043.8958;1637.3435;0.0;0.0;1838.2656
320.965;1.1752846;1.1633804;2417.3818;-6470.0874;-4052.7056;1581.0427;0.0;0.0;1838.2656
320.97;1.1745752;1.1562283;2414.234;-6473.161;-4058.9272;1547.8964;0.0;0.0;1838.2656
320.975;1.1737213;1.1534678;2410.837;-6472.8823;-4062.0454;1539.4667;0.0;0.0;1838.2656
320.98;1.1729498;1.1543434;2408.0586;-6470.209;-4062.1504;1549.8519;0.0;0.0;1838.2656
320.985;1.1724421;1.157821;2406.6226;-6465.74;-4059.1177;1571.9031;0.0;0.0;1838.2656
320.99;1.1723487;1.1621177;2406.9443;-6461.045;-4054.1006;1594.9542;0.0;0.0;1838.2656
320.995;1.1726826;1.1646394;2408.7554;-6458.496;-4049.7407;1605.2389;0.0;0.0;1838.2656
321.0;1.1732504;1.1647583;2411.0164;-6458.125;-4047.1086;1601.373;0.0;0.0;1838.2656
321.005;1.1737266;1.1626775;2412.4202;-6459.5146;-4047.0945;1587.0902;0.0;0.0;1838.2656
321.01;1.1738365;1.1601919;2412.21;-6460.9688;-4048.7588;1573.8029;0.0;0.0;1838.2656
321.015;1.1735488;1.1595609;2410.6543;-6460.1714;-4049.517;1573.4346;0.0;0.0;1838.2656
321.02;1.1730727;1.1609967;2408.793;-6457.981;-4049.188;1585.0746;0.0;0.0;1838.2656
321.025;1.172704;1.1644164;2407.6636;-6454.1743;-4046.5107;1606.1929;0.0;0.0;1838.2656
321.03;1.1725962;1.1684918;2407.4775;-6450.249;-4042.7715;1629.0402;0.0;0.0;1838.2656
321.035;1.1726527;1.1721616;2407.7935;-6447.068;-4039.2744;1648.646;0.0;0.0;1838.2656
321.04;1.1727766;1.1753659;2408.5105;-6444.2627;-4035.7522;1664.8835;0.0;0.0;1838.2656
321.045;1.1730382;1.1771652;2409.9204;-6442.676;-4032.7554;1671.9856;0.0;0.0;1838.2656
321.05;1.1734828;1.1762114;2411.921;-6443.9146;-4031.9937;1662.7246;0.0;0.0;1838.2656
321.055;1.17399;1.1731155;2413.983;-6446.4272;-4032.4443;1641.5277;0.0;0.0;1838.2656
321.06;1.1744283;1.1674609;2415.625;-6451.262;-4035.6372;1607.0596;0.0;0.0;1838.2656
321.065;1.1747062;1.1607182;2416.5342;-6456.5205;-4039.9863;1568.0566;0.0;0.0;1838.2656
321.07;1.1747772;1.1538048;2416.5667;-6461.5913;-4045.0247;1529.8655;0.0;0.0;1838.2656
321.075;1.1746346;1.1473403;2415.751;-6466.3154;-4050.5645;1495.847;0.0;0.0;1838.2656
321.08;1.1743056;1.1426947;2414.184;-6469.5117;-4055.3276;1473.3612;0.0;0.0;1838.2656
321.085;1.1738172;1.1407158;2412.0435;-6470.4688;-4058.4253;1466.7291;0.0;0.0;1838.2656
321.09;1.1732392;1.1418709;2409.7268;-6468.9277;-4059.201;1477.7319;0.0;0.0;1838.2656
321.095;1.1727068;1.1455817;2407.8242;-6465.796;-4057.9717;1502.0022;0.0;0.0;1838.2656
321.1;1.1723634;1.1511929;2406.829;-6461.7026;-4054.8735;1534.9366;0.0;0.0;1838.2656
321.105;1.1722791;1.1573172;2406.8062;-6457.5537;-4050.7476;1568.757;0.0;0.0;1838.2656
321.11;1.1723815;1.1636579;2407.2764;-6453.4253;-4046.149;1602.7844;0.0;0.0;1838.2656
321.115;1.1724985;1.1694787;2407.56;-6450.1084;-4042.5483;1634.317;0.0;0.0;1838.2656
321.12;1.1724886;1.1757591;2407.2786;-6446.295;-4039.0164;1669.5151;0.0;0.0;1838.2656
321.125;1.1723435;1.1828498;2406.6277;-6441.9033;-4035.2756;1709.9209;0.0;0.0;1838.2656
321.13;1.1721921;1.1906611;2406.199;-6437.118;-4030.9192;1753.8561;0.0;0.0;1838.2656
321.135;1.1721933;1.1986685;2406.5825;-6432.2803;-4025.6978;1797.2483;0.0;0.0;1838.2656
321.14;1.1724577;1.2052726;2408.0813;-6428.9795;-4020.8982;1830.6707;0.0;0.0;1838.2656
321.145;1.1729858;1.209265;2410.4177;-6428.1245;-4017.7068;1848.015;0.0;0.0;1838.2656
321.15;1.1736076;1.2100674;2412.7607;-6430.1855;-4017.4248;1847.7545;0.0;0.0;1838.2656
321.155;1.1740832;1.209058;2414.2734;-6433.5093;-4019.2358;1839.1627;0.0;0.0;1838.2656
