time;temperature;pressure;kinetic_energy;potential_energy;total_energy;virial;msd;diffusion;volume
3200.005;0.020045014;-0.7911213;41.23311;-9896.365;-9855.132;-4445.3394;0.0;0.0;1838.2656
3200.01;0.02004535;-0.79126143;41.237446;-9896.311;-9855.073;-4446.121;0.0;0.0;1838.2656
3200.015;0.020044833;-0.7915902;41.237957;-9896.42;-9855.182;-4447.935;0.0;0.0;1838.2656
3200.02;0.020043287;-0.7918784;41.234688;-9896.529;-9855.295;-4449.518;0.0;0.0;1838.2656
3200.025;0.02004093;-0.7922192;41.2274;-9896.732;-9855.505;-4451.383;0.0;0.0;1838.2656
3200.03;0.020037415;-0.792451;41.21569;-9896.834;-9855.618;-4452.6377;0.0;0.0;1838.2656
3200.035;0.020032948;-0.79281694;41.200127;-9897.041;-9855.841;-4454.6245;0.0;0.0;1838.2656
3200.04;0.020027595;-0.7930088;41.182068;-9897.114;-9855.933;-4455.6465;0.0;0.0;1838.2656
3200.045;0.020021942;-0.7934179;41.16196;-9897.359;-9856.197;-4457.8623;0.0;0.0;1838.2656
3200.05;0.020015642;-0.7936703;41.139435;-9897.555;-9856.415;-4459.209;0.0;0.0;1838.2656
3200.055;0.020008864;-0.7938022;41.115036;-9897.546;-9856.431;-4459.8877;0.0;0.0;1838.2656
3200.06;0.02000173;-0.7939552;41.090206;-9897.512;-9856.422;-4460.682;0.0;0.0;1838.2656
3200.065;0.019994777;-0.7939619;41.065308;-9897.348;-9856.282;-4460.669;0.0;0.0;1838.2656
3200.07;0.019987686;-0.79412705;41.041126;-9897.364;-9856.323;-4461.5317;0.0;0.0;1838.2656
3200.075;0.019981112;-0.79417807;41.01883;-9897.342;-9856.323;-4461.7686;0.0;0.0;1838.2656
3200.08;0.019974997;-0.7942548;40.998615;-9897.284;-9856.285;-4462.1514;0.0;0.0;1838.2656
3200.085;0.019969491;-0.79417896;40.980526;-9896.9795;-9855.999;-4461.697;0.0;0.0;1838.2656
3200.09;0.019964442;-0.7942293;40.964767;-9896.914;-9855.949;-4461.943;0.0;0.0;1838.2656
3200.095;0.01996012;-0.7941343;40.95323;-9896.64;-9855.687;-4461.396;0.0;0.0;1838.2656
3200.1;0.019957166;-0.7939713;40.946648;-9896.305;-9855.358;-4460.4834;0.0;0.0;1838.2656
3200.105;0.019955259;-0.79404163;40.94338;-9896.275;-9855.332;-4460.865;0.0;0.0;1838.2656
3200.11;0.019953933;-0.7941386;40.94364;-9896.291;-9855.348;-4461.4004;0.0;0.0;1838.2656
3200.115;0.019953746;-0.79410547;40.94855;-9896.205;-9855.257;-4461.2275;0.0;0.0;1838.2656
3200.12;0.019954672;-0.7941441;40.957375;-9896.14;-9855.183;-4461.458;0.0;0.0;1838.2656
3200.125;0.019956362;-0.7941303;40.969643;-9895.94;-9854.971;-4461.4067;0.0;0.0;1838.2656
3200.13;0.019958934;-0.79421735;40.985798;-9895.923;-9854.9375;-4461.919;0.0;0.0;1838.2656
3200.135;0.01996243;-0.79444176;41.0045;-9896.09;-9855.085;-4463.194;0.0;0.0;1838.2656
3200.14;0.01996619;-0.79450667;41.023754;-9895.943;-9854.92;-4463.5903;0.0;0.0;1838.2656
3200.145;0.01996986;-0.7945966;41.04377;-9895.93;-9854.886;-4464.1265;0.0;0.0;1838.2656
3200.15;0.019973926;-0.7947081;41.064297;-9895.824;-9854.76;-4464.782;0.0;0.0;1838.2656
3200.155;0.019977743;-0.7948464;41.082687;-9895.787;-9854.704;-4465.582;0.0;0.0;1838.2656
3200.16;0.019980704;-0.79506475;41.098103;-9895.891;-9854.793;-4466.817;0.0;0.0;1838.2656
3200.165;0.019983027;-0.79535514;41.110424;-9896.027;-9854.917;-4468.443;0.0;0.0;1838.2656
3200.17;0.01998441;-0.79546696;41.11885;-9895.969;-9854.85;-4469.0767;0.0;0.0;1838.2656
3200.175;0.019984825;-0.7958443;41.122784;-9896.314;-9855.191;-4471.1655;0.0;0.0;1838.2656
3200.18;0.019984001;-0.7961508;41.12279;-9896.502;-9855.379;-4472.8555;0.0;0.0;1838.2656
3200.185;0.0199825;-0.7963412;41.118942;-9896.652;-9855.533;-4473.8975;0.0;0.0;1838.2656
3200.19;0.019979835;-0.79646254;41.11072;-9896.66;-9855.55;-4474.551;0.0;0.0;1838.2656
3200.195;0.019976234;-0.79671276;41.099007;-9896.875;-9855.776;-4475.907;0.0;0.0;1838.2656
3200.2;0.019971909;-0.79677284;41.084743;-9896.818;-9855.733;-4476.21;0.0;0.0;1838.2656
3200.205;0.019967116;-0.7969696;41.068527;-9897.041;-9855.973;-4477.2627;0.0;0.0;1838.2656
3200.21;0.019961901;-0.7970065;41.051334;-9896.996;-9855.944;-4477.4316;0.0;0.0;1838.2656
3200.215;0.019956702;-0.7969826;41.033928;-9896.96;-9855.926;-4477.2646;0.0;0.0;1838.2656
3200.22;0.019951437;-0.7969752;41.016624;-9896.857;-9855.841;-4477.19;0.0;0.0;1838.2656
3200.225;0.019946307;-0.7970045;41.00118;-9896.994;-9855.993;-4477.3203;0.0;0.0;1838.2656
3200.23;0.019942002;-0.7968051;40.98799;-9896.743;-9855.755;-4476.194;0.0;0.0;1838.2656
3200.235;0.019937992;-0.7967417;40.976463;-9896.6455;-9855.669;-4475.822;0.0;0.0;1838.2656
3200.24;0.01993451;-0.79663765;40.96732;-9896.5625;-9855.595;-4475.2295;0.0;0.0;1838.2656
3200.245;0.019931667;-0.7965564;40.960648;-9896.561;-9855.6;-4474.768;0.0;0.0;1838.2656
3200.25;0.019929348;-0.7966235;40.95495;-9896.8125;-9855.857;-4475.127;0.0;0.0;1838.2656
3200.255;0.01992699;-0.7965007;40.95106;-9896.799;-9855.848;-4474.4414;0.0;0.0;1838.2656
3200.26;0.019925524;-0.79641616;40.948418;-9896.831;-9855.883;-4473.97;0.0;0.0;1838.2656
3200.265;0.019923745;-0.79629153;40.946026;-9896.758;-9855.812;-4473.2783;0.0;0.0;1838.2656
3200.27;0.01992237;-0.7962422;40.944305;-9896.801;-9855.856;-4473.0024;0.0;0.0;1838.2656
3200.275;0.019920884;-0.7962044;40.942513;-9896.828;-9855.886;-4472.7905;0.0;0.0;1838.2656
3200.28;0.019919436;-0.79607064;40.939705;-9896.768;-9855.828;-4472.0474;0.0;0.0;1838.2656
3200.285;0.01991745;-0.79604304;40.934986;-9896.9;-9855.966;-4471.8857;0.0;0.0;1838.2656
3200.29;0.019915048;-0.7959714;40.928974;-9896.84;-9855.911;-4471.4785;0.0;0.0;1838.2656
3200.295;0.019912435;-0.79583794;40.9215;-9896.75;-9855.828;-4470.7275;0.0;0.0;1838.2656
3200.3;0.019909324;-0.7957517;40.912148;-9896.691;-9855.779;-4470.2334;0.0;0.0;1838.2656
3200.305;0.019905794;-0.7956087;40.901134;-9896.613;-9855.712;-4469.4224;0.0;0.0;1838.2656
3200.31;0.019901903;-0.79543096;40.889328;-9896.314;-9855.425;-4468.419;0.0;0.0;1838.2656
3200.315;0.019897988;-0.7953401;40.876606;-9896.302;-9855.425;-4467.8926;0.0;0.0;1838.2656
3200.32;0.019893717;-0.7952406;40.86331;-9896.235;-9855.372;-4467.317;0.0;0.0;1838.2656
3200.325;0.019889537;-0.7950922;40.850025;-9896.16;-9855.311;-4466.472;0.0;0.0;1838.2656
3200.33;0.019885315;-0.7951236;40.83716;-9896.351;-9855.514;-4466.6196;0.0;0.0;1838.2656
3200.335;0.019881384;-0.7950366;40.82527;-9896.275;-9855.45;-4466.116;0.0;0.0;1838.2656
3200.34;0.019877652;-0.7950199;40.814735;-9896.34;-9855.525;-4466.003;0.0;0.0;1838.2656
3200.345;0.019874427;-0.79486215;40.806244;-9896.109;-9855.303;-4465.1157;0.0;0.0;1838.2656
3200.35;0.019871715;-0.7948487;40.799767;-9896.201;-9855.401;-4465.0283;0.0;0.0;1838.2656
3200.355;0.019869465;-0.79475147;40.795647;-9895.992;-9855.196;-4464.4844;0.0;0.0;1838.2656
3200.36;0.019867906;-0.7946028;40.79411;-9895.809;-9855.015;-4463.6616;0.0;0.0;1838.2656
3200.365;0.019866925;-0.79443276;40.795288;-9895.411;-9854.616;-4462.726;0.0;0.0;1838.2656
3200.37;0.01986663;-0.7942901;40.79841;-9895.155;-9854.356;-4461.9453;0.0;0.0;1838.2656
3200.375;0.019866576;-0.7943341;40.802776;-9895.155;-9854.353;-4462.197;0.0;0.0;1838.2656
3200.38;0.019866839;-0.79433906;40.80772;-9895.045;-9854.237;-4462.234;0.0;0.0;1838.2656
3200.385;0.019867027;-0.7944531;40.81248;-9895.039;-9854.227;-4462.872;0.0;0.0;1838.2656
3200.39;0.019867154;-0.79455936;40.816963;-9895.0205;-9854.203;-4463.4673;0.0;0.0;1838.2656
3200.395;0.019867146;-0.79463303;40.81998;-9895.002;-9854.182;-4463.88;0.0;0.0;1838.2656
3200.4;0.019866532;-0.7947616;40.820755;-9895.002;-9854.182;-4464.5903;0.0;0.0;1838.2656
3200.405;0.019865407;-0.79502434;40.819336;-9895.141;-9854.321;-4466.036;0.0;0.0;1838.2656
3200.41;0.0198637;-0.7951913;40.815273;-9895.209;-9854.394;-4466.9487;0.0;0.0;1838.2656
3200.415;0.01986128;-0.79522836;40.808556;-9894.962;-9854.153;-4467.14;0.0;0.0;1838.2656
3200.42;0.019858325;-0.79539204;40.79926;-9894.935;-9854.136;-4468.024;0.0;0.0;1838.2656
3200.425;0.019854669;-0.79558283;40.787956;-9894.959;-9854.171;-4469.0537;0.0;0.0;1838.2656
3200.43;0.019850776;-0.7957862;40.775406;-9895.016;-9854.24;-4470.1504;0.0;0.0;1838.2656
3200.435;0.019846553;-0.7959168;40.76173;-9895.012;-9854.25;-4470.843;0.0;0.0;1838.2656
3200.44;0.019842172;-0.7960655;40.748108;-9894.914;-9854.166;-4471.6357;0.0;0.0;1838.2656
3200.445;0.019838018;-0.79618156;40.7353;-9894.849;-9854.113;-4472.25;0.0;0.0;1838.2656
3200.45;0.019834086;-0.7963482;40.723927;-9894.838;-9854.114;-4473.1465;0.0;0.0;1838.2656
3200.455;0.019830665;-0.79651713;40.715103;-9894.872;-9854.157;-4474.0605;0.0;0.0;1838.2656
3200.46;0.01982801;-0.7965338;40.708855;-9894.703;-9853.994;-4474.1396;0.0;0.0;1838.2656
3200.465;0.019825881;-0.7967274;40.704975;-9894.76;-9854.055;-4475.1997;0.0;0.0;1838.2656
3200.47;0.019824363;-0.79674953;40.70462;-9894.432;-9853.727;-4475.3213;0.0;0.0;1838.2656
3200.475;0.019823931;-0.7970416;40.70733;-9894.722;-9854.015;-4476.937;0.0;0.0;1838.2656
3200.48;0.019823892;-0.79713255;40.712395;-9894.557;-9853.845;-4477.4487;0.0;0.0;1838.2656
3200.485;0.019824583;-0.7971951;40.719788;-9894.345;-9853.625;-4477.8086;0.0;0.0;1838.2656
3200.49;0.01982565;-0.79732;40.728535;-9894.172;-9853.443;-4478.5146;0.0;0.0;1838.2656
3200.495;0.019826947;-0.79755175;40.738884;-9894.1875;-9853.448;-4479.8135;0.0;0.0;1838.2656
3200.5;0.019828754;-0.79773986;40.750435;-9894.117;-9853.367;-4480.874;0.0;0.0;1838.2656
3200.505;0.01983059;-0.798079;40.762276;-9894.243;-9853.48;-4482.768;0.0;0.0;1838.2656
3200.51;0.019832484;-0.7984704;40.77359;-9894.425;-9853.651;-4484.949;0.0;0.0;1838.2656
3200.515;0.019834045;-0.79860365;40.784164;-9894.192;-9853.408;-4485.705;0.0;0.0;1838.2656
3200.52;0.019835547;-0.79892826;40.794228;-9894.18;-9853.386;-4487.5156;0.0;0.0;1838.2656
3200.525;0.019836811;-0.7992472;40.803356;-9894.217;-9853.413;-4489.2925;0.0;0.0;1838.2656
3200.53;0.01983785;-0.7995586;40.810986;-9894.22;-9853.409;-4491.025;0.0;0.0;1838.2656
3200.535;0.019838355;-0.8000102;40.81737;-9894.349;-9853.531;-4493.5283;0.0;0.0;1838.2656
3200.54;0.019838784;-0.8001975;40.82242;-9894.086;-9853.264;-4494.5713;0.0;0.0;1838.2656
3200.545;0.019838609;-0.8006323;40.82522;-9894.219;-9853.394;-4496.975;0.0;0.0;1838.2656
3200.55;0.019837953;-0.8011905;40.82653;-9894.522;-9853.696;-4500.056;0.0;0.0;1838.2656
3200.555;0.019837052;-0.8014748;40.825882;-9894.445;-9853.619;-4501.6226;0.0;0.0;1838.2656
3200.56;0.019835435;-0.80184877;40.823242;-9894.467;-9853.644;-4503.6797;0.0;0.0;1838.2656
3200.565;0.019833563;-0.8023405;40.819515;-9894.701;-9853.882;-4506.3843;0.0;0.0;1838.2656
3200.57;0.019831412;-0.80273145;40.814056;-9894.778;-9853.964;-4508.529;0.0;0.0;1838.2656
3200.575;0.0198287;-0.8030943;40.806828;-9894.893;-9854.086;-4510.5156;0.0;0.0;1838.2656
3200.58;0.019825704;-0.8036295;40.79851;-9895.195;-9854.396;-4513.4507;0.0;0.0;1838.2656
3200.585;0.019822447;-0.8039502;40.788223;-9895.1875;-9854.399;-4515.198;0.0;0.0;1838.2656
3200.59;0.019818489;-0.80434847;40.776215;-9895.414;-9854.638;-4517.3706;0.0;0.0;1838.2656
3200.595;0.01981444;-0.80476826;40.763557;-9895.644;-9854.88;-4519.6606;0.0;0.0;1838.2656
3200.6;0.01981015;-0.8050848;40.74922;-9895.729;-9854.9795;-4521.3774;0.0;0.0;1838.2656
3200.605;0.019805312;-0.80542344;40.73336;-9895.809;-9855.075;-4523.2134;0.0;0.0;1838.2656
3200.61;0.01980026;-0.8057018;40.716072;-9895.998;-9855.282;-4524.714;0.0;0.0;1838.2656
3200.615;0.019794798;-0.8060568;40.69689;-9896.168;-9855.471;-4526.6333;0.0;0.0;1838.2656
3200.62;0.019788818;-0.80619735;40.676437;-9896.186;-9855.509;-4527.367;0.0;0.0;1838.2656
3200.625;0.019782798;-0.8065539;40.655922;-9896.545;-9855.889;-4529.2925;0.0;0.0;1838.2656
3200.63;0.019776825;-0.80672675;40.63527;-9896.533;-9855.897;-4530.205;0.0;0.0;1838.2656
3200.635;0.019770792;-0.8068569;40.614723;-9896.529;-9855.915;-4530.881;0.0;0.0;1838.2656
3200.64;0.019764932;-0.8069772;40.595943;-9896.541;-9855.945;-4531.5073;0.0;0.0;1838.2656
3200.645;0.019759795;-0.8070583;40.579643;-9896.537;-9855.957;-4531.922;0.0;0.0;1838.2656
3200.65;0.019755205;-0.8070986;40.56551;-9896.461;-9855.8955;-4532.116;0.0;0.0;1838.2656
3200.655;0.019751154;-0.8072953;40.55503;-9896.586;-9856.031;-4533.1797;0.0;0.0;1838.2656
3200.66;0.019748343;-0.80731845;40.54801;-9896.578;-9856.03;-4533.293;0.0;0.0;1838.2656
3200.665;0.019746015;-0.8073826;40.544395;-9896.512;-9855.968;-4533.6396;0.0;0.0;1838.2656
3200.67;0.019744843;-0.8074348;40.545765;-9896.475;-9855.929;-4533.93;0.0;0.0;1838.2656
3200.675;0.019744936;-0.8076113;40.55073;-9896.65;-9856.1;-4534.9136;0.0;0.0;1838.2656
3200.68;0.01974548;-0.8076571;40.55821;-9896.625;-9856.066;-4535.1816;0.0;0.0;1838.2656
3200.685;0.019746771;-0.80780953;40.569027;-9896.666;-9856.097;-4536.0435;0.0;0.0;1838.2656
3200.69;0.01974888;-0.80800575;40.582596;-9896.849;-9856.266;-4537.153;0.0;0.0;1838.2656
3200.695;0.019751444;-0.8081875;40.59718;-9896.926;-9856.328;-4538.184;0.0;0.0;1838.2656
3200.7;0.019753974;-0.8082512;40.6118;-9896.855;-9856.244;-4538.5645;0.0;0.0;1838.2656
3200.705;0.019756496;-0.80836385;40.625843;-9896.768;-9856.142;-4539.214;0.0;0.0;1838.2656
3200.71;0.019758664;-0.8085061;40.63858;-9896.783;-9856.145;-4540.024;0.0;0.0;1838.2656
3200.715;0.01976048;-0.8087717;40.64943;-9896.931;-9856.281;-4541.5107;0.0;0.0;1838.2656
3200.72;0.019761674;-0.80895007;40.65744;-9897.05;-9856.393;-4542.5103;0.0;0.0;1838.2656
3200.725;0.019762067;-0.8091663;40.66159;-9897.18;-9856.519;-4543.711;0.0;0.0;1838.2656
3200.73;0.019761326;-0.8094911;40.661118;-9897.481;-9856.82;-4545.501;0.0;0.0;1838.2656
3200.735;0.019759454;-0.80967104;40.655975;-9897.597;-9856.94;-4546.4834;0.0;0.0;1838.2656
3200.74;0.019756444;-0.8099188;40.645885;-9897.841;-9857.195;-4547.8296;0.0;0.0;1838.2656
3200.745;0.019752184;-0.81010073;40.63095;-9897.988;-9857.357;-4548.8027;0.0;0.0;1838.2656
3200.75;0.01974685;-0.8101797;40.61184;-9897.996;-9857.384;-4549.2;0.0;0.0;1838.2656
3200.755;0.019740598;-0.8102771;40.589188;-9898.074;-9857.485;-4549.6924;0.0;0.0;1838.2656
3200.76;0.019733611;-0.8102859;40.563446;-9898.109;-9857.546;-4549.689;0.0;0.0;1838.2656
3200.765;0.019725911;-0.81009316;40.535336;-9897.88;-9857.345;-4548.57;0.0;0.0;1838.2656
3200.77;0.019717867;-0.8099451;40.50612;-9897.697;-9857.191;-4547.6953;0.0;0.0;1838.2656
3200.775;0.019709695;-0.8096978;40.476883;-9897.439;-9856.963;-4546.2725;0.0;0.0;1838.2656
3200.78;0.01970173;-0.80946875;40.449287;-9897.25;-9856.801;-4544.954;0.0;0.0;1838.2656
3200.785;0.019694423;-0.80927914;40.42362;-9897.199;-9856.775;-4543.8574;0.0;0.0;1838.2656
3200.79;0.019687468;-0.8088889;40.400368;-9896.885;-9856.484;-4541.6587;0.0;0.0;1838.2656
3200.795;0.019681403;-0.8085395;40.381516;-9896.703;-9856.321;-4539.6943;0.0;0.0;1838.2656
3200.8;0.019676642;-0.80804557;40.367508;-9896.276;-9855.909;-4536.9424;0.0;0.0;1838.2656
3200.805;0.01967294;-0.8078873;40.358147;-9896.492;-9856.134;-4536.051;0.0;0.0;1838.2656
3200.81;0.019670466;-0.80751354;40.35326;-9896.322;-9855.969;-4533.9795;0.0;0.0;1838.2656
3200.815;0.019668931;-0.80711216;40.353264;-9896.093;-9855.739;-4531.766;0.0;0.0;1838.2656
3200.82;0.019668797;-0.80673254;40.358105;-9895.948;-9855.59;-4529.682;0.0;0.0;1838.2656
3200.825;0.019669596;-0.80636406;40.36667;-9895.817;-9855.451;-4527.6675;0.0;0.0;1838.2656
3200.83;0.019671204;-0.8060909;40.377693;-9895.828;-9855.45;-4526.183;0.0;0.0;1838.2656
3200.835;0.019673118;-0.8056955;40.3899;-9895.615;-9855.226;-4524.027;0.0;0.0;1838.2656
3200.84;0.019675259;-0.8053166;40.40294;-9895.46;-9855.057;-4521.9634;0.0;0.0;1838.2656
3200.845;0.019677533;-0.8050268;40.41563;-9895.383;-9854.967;-4520.3906;0.0;0.0;1838.2656
3200.85;0.019679418;-0.8047726;40.426765;-9895.3955;-9854.969;-4519.011;0.0;0.0;1838.2656
3200.855;0.01968092;-0.804546;40.437145;-9895.457;-9855.02;-4517.782;0.0;0.0;1838.2656
3200.86;0.019682381;-0.8042519;40.44547;-9895.339;-9854.894;-4516.177;0.0;0.0;1838.2656
3200.865;0.01968286;-0.80399996;40.450603;-9895.372;-9854.922;-4514.7974;0.0;0.0;1838.2656
3200.87;0.01968276;-0.80383575;40.453712;-9895.532;-9855.078;-4513.8984;0.0;0.0;1838.2656
3200.875;0.019682255;-0.80349356;40.454624;-9895.382;-9854.927;-4512.013;0.0;0.0;1838.2656
3200.88;0.019681107;-0.8033598;40.45333;-9895.606;-9855.153;-4511.273;0.0;0.0;1838.2656
3200.885;0.019679544;-0.80324936;40.4503;-9895.814;-9855.364;-4510.6577;0.0;0.0;1838.2656
3200.89;0.019677572;-0.8029454;40.445816;-9895.852;-9855.405;-4508.9727;0.0;0.0;1838.2656
3200.895;0.01967534;-0.8027832;40.440536;-9896.024;-9855.584;-4508.0674;0.0;0.0;1838.2656
3200.9;0.019673007;-0.80246544;40.43561;-9895.9795;-9855.544;-4506.305;0.0;0.0;1838.2656
3200.905;0.019670973;-0.8023072;40.430717;-9896.225;-9855.794;-4505.423;0.0;0.0;1838.2656
3200.91;0.019668685;-0.8020714;40.425484;-9896.369;-9855.943;-4504.112;0.0;0.0;1838.2656
3200.915;0.019666484;-0.80174905;40.420822;-9896.33;-9855.909;-4502.3247;0.0;0.0;1838.2656
3200.92;0.019664487;-0.80154216;40.417465;-9896.547;-9856.13;-4501.177;0.0;0.0;1838.2656
3200.925;0.019662943;-0.80143636;40.414997;-9896.938;-9856.523;-4500.589;0.0;0.0;1838.2656
3200.93;0.019661361;-0.80106753;40.41283;-9896.873;-9856.46;-4498.5503;0.0;0.0;1838.2656
3200.935;0.019659946;-0.8007172;40.411564;-9896.857;-9856.446;-4496.6157;0.0;0.0;1838.2656
3200.94;0.01965879;-0.8004872;40.41055;-9897.018;-9856.607;-4495.3457;0.0;0.0;1838.2656
3200.945;0.019657483;-0.8002024;40.409878;-9897.096;-9856.686;-4493.7734;0.0;0.0;1838.2656
3200.95;0.019656466;-0.79984254;40.4092;-9897.0205;-9856.611;-4491.7876;0.0;0.0;1838.2656
3200.955;0.019655144;-0.7995344;40.408257;-9897.023;-9856.615;-4490.0864;0.0;0.0;1838.2656
3200.96;0.019653957;-0.7991922;40.406998;-9896.933;-9856.525;-4488.197;0.0;0.0;1838.2656
3200.965;0.019652467;-0.7989488;40.40468;-9897.055;-9856.65;-4486.8496;0.0;0.0;1838.2656
3200.97;0.019650744;-0.7985549;40.401833;-9896.832;-9856.431;-4484.672;0.0;0.0;1838.2656
3200.975;0.019649005;-0.79839903;40.398502;-9896.928;-9856.529;-4483.8057;0.0;0.0;1838.2656
3200.98;0.019647023;-0.7980999;40.393406;-9896.975;-9856.581;-4482.1455;0.0;0.0;1838.2656
3200.985;0.019644441;-0.7978383;40.387016;-9896.869;-9856.482;-4480.69;0.0;0.0;1838.2656
3200.99;0.019641813;-0.7976951;40.379513;-9897.037;-9856.657;-4479.8853;0.0;0.0;1838.2656
3200.995;0.01963872;-0.79754764;40.370445;-9897.141;-9856.7705;-4479.054;0.0;0.0;1838.2656
3201.0;0.019635348;-0.7973265;40.361084;-9897.108;-9856.747;-4477.816;0.0;0.0;1838.2656
3201.005;0.019632155;-0.79715097;40.351906;-9897.178;-9856.826;-4476.829;0.0;0.0;1838.2656
3201.01;0.019628888;-0.7970466;40.342728;-9897.328;-9856.985;-4476.236;0.0;0.0;1838.2656
3201.015;0.019625742;-0.79682505;40.334488;-9897.117;-9856.782;-4474.9976;0.0;0.0;1838.2656
3201.02;0.019622972;-0.79652977;40.327496;-9896.912;-9856.585;-4473.355;0.0;0.0;1838.2656
3201.025;0.019620439;-0.79639083;40.321915;-9896.818;-9856.496;-4472.5776;0.0;0.0;1838.2656
3201.03;0.01961837;-0.79634535;40.318626;-9896.848;-9856.529;-4472.32;0.0;0.0;1838.2656
3201.035;0.019616961;-0.79612976;40.317738;-9896.733;-9856.416;-4471.1294;0.0;0.0;1838.2656
3201.04;0.019616049;-0.7960404;40.31852;-9896.585;-9856.267;-4470.638;0.0;0.0;1838.2656
3201.045;0.01961544;-0.79582;40.321823;-9896.229;-9855.906;-4469.429;0.0;0.0;1838.2656
3201.05;0.019615723;-0.795847;40.327053;-9896.338;-9856.011;-4469.5884;0.0;0.0;1838.2656
3201.055;0.019616025;-0.79594684;40.332752;-9896.3955;-9856.0625;-4470.1504;0.0;0.0;1838.2656
3201.06;0.019616479;-0.7959998;40.33866;-9896.424;-9856.085;-4470.4546;0.0;0.0;1838.2656
3201.065;0.01961685;-0.7960854;40.344612;-9896.504;-9856.159;-4470.9385;0.0;0.0;1838.2656
3201.07;0.019617261;-0.7962346;40.349697;-9896.619;-9856.27;-4471.7715;0.0;0.0;1838.2656
3201.075;0.019617178;-0.7964922;40.353035;-9896.826;-9856.473;-4473.1987;0.0;0.0;1838.2656
3201.08;0.01961665;-0.7966706;40.354202;-9896.905;-9856.551;-4474.185;0.0;0.0;1838.2656
3201.085;0.019615505;-0.79681695;40.35267;-9896.98;-9856.628;-4474.989;0.0;0.0;1838.2656
3201.09;0.019613644;-0.7967827;40.348083;-9896.725;-9856.377;-4474.7905;0.0;0.0;1838.2656
3201.095;0.019611014;-0.7970214;40.34018;-9896.841;-9856.501;-4476.0913;0.0;0.0;1838.2656
3201.1;0.019607525;-0.79712325;40.329258;-9896.775;-9856.446;-4476.6313;0.0;0.0;1838.2656
3201.105;0.019603452;-0.79732686;40.31494;-9896.912;-9856.598;-4477.7256;0.0;0.0;1838.2656
3201.11;0.019598328;-0.7973919;40.297363;-9896.787;-9856.49;-4478.0493;0.0;0.0;1838.2656
