time;temperature;pressure;kinetic_energy;potential_energy;total_energy;virial;msd;diffusion;volume
3075.005;0.07020674;-0.682907;144.46738;-9789.77;-9645.302;-4055.0278;0.0;0.0;1838.2656
3075.01;0.07019219;-0.68291336;144.40901;-9790.303;-9645.894;-4054.9465;0.0;0.0;1838.2656
3075.015;0.07017562;-0.6826952;144.34264;-9790.433;-9646.09;-4053.6106;0.0;0.0;1838.2656
3075.02;0.07015744;-0.6823884;144.27277;-9790.503;-9646.23;-4051.7793;0.0;0.0;1838.2656
3075.025;0.07013946;-0.68191385;144.20358;-9790.529;-9646.326;-4049.0234;0.0;0.0;1838.2656
3075.03;0.07012192;-0.6815954;144.13943;-9790.816;-9646.677;-4047.1392;0.0;0.0;1838.2656
3075.035;0.07010663;-0.68125975;144.08414;-9791.138;-9647.054;-4045.1775;0.0;0.0;1838.2656
3075.04;0.07009353;-0.6806397;144.03844;-9791.128;-9647.09;-4041.6665;0.0;0.0;1838.2656
3075.045;0.07008306;-0.6800124;144.00674;-9791.047;-9647.04;-4038.1438;0.0;0.0;1838.2656
3075.05;0.07007671;-0.6796091;143.9885;-9791.388;-9647.399;-4035.883;0.0;0.0;1838.2656
3075.055;0.07007276;-0.6788421;143.97797;-9791.169;-9647.191;-4031.6323;0.0;0.0;1838.2656
3075.06;0.070070066;-0.67840517;143.97324;-9791.45;-9647.477;-4029.213;0.0;0.0;1838.2656
3075.065;0.07006881;-0.6777288;143.97214;-9791.292;-9647.32;-4025.4807;0.0;0.0;1838.2656
3075.07;0.070067614;-0.67711246;143.9718;-9791.219;-9647.247;-4022.081;0.0;0.0;1838.2656
3075.075;0.07006665;-0.6764764;143.97;-9791.172;-9647.202;-4018.57;0.0;0.0;1838.2656
3075.08;0.0700646;-0.67587894;143.96286;-9791.017;-9647.054;-4015.2607;0.0;0.0;1838.2656
3075.085;0.07006093;-0.6754232;143.94865;-9791.127;-9647.179;-4012.719;0.0;0.0;1838.2656
3075.09;0.07005544;-0.6748805;143.9275;-9791.098;-9647.17;-4009.6838;0.0;0.0;1838.2656
3075.095;0.0700484;-0.67437315;143.89792;-9791.055;-9647.157;-4006.8267;0.0;0.0;1838.2656
3075.1;0.07003889;-0.6737982;143.86072;-9790.916;-9647.056;-4003.5818;0.0;0.0;1838.2656
3075.105;0.07002831;-0.6732533;143.8204;-9790.863;-9647.043;-4000.496;0.0;0.0;1838.2656
3075.11;0.07001751;-0.6726794;143.77814;-9790.678;-9646.899;-3997.2466;0.0;0.0;1838.2656
3075.115;0.070006154;-0.67191315;143.73703;-9790.33;-9646.593;-3992.9385;0.0;0.0;1838.2656
3075.12;0.069996126;-0.6712238;143.70085;-9789.962;-9646.261;-3989.0647;0.0;0.0;1838.2656
3075.125;0.06998736;-0.67054534;143.67114;-9789.698;-9646.027;-3985.2637;0.0;0.0;1838.2656
3075.13;0.06998062;-0.66993356;143.65099;-9789.441;-9645.79;-3981.8494;0.0;0.0;1838.2656
3075.135;0.06997656;-0.6691301;143.64163;-9788.969;-9645.327;-3977.3997;0.0;0.0;1838.2656
3075.14;0.069975175;-0.66845477;143.64307;-9788.437;-9644.793;-3973.6785;0.0;0.0;1838.2656
3075.145;0.06997635;-0.66776466;143.65729;-9787.973;-9644.315;-3969.9011;0.0;0.0;1838.2656
3075.15;0.06998112;-0.6672846;143.68423;-9787.785;-9644.101;-3967.3076;0.0;0.0;1838.2656
3075.155;0.06998843;-0.6667107;143.72052;-9787.336;-9643.615;-3964.2148;0.0;0.0;1838.2656
3075.16;0.06999759;-0.6662587;143.76486;-9786.895;-9643.13;-3961.8113;0.0;0.0;1838.2656
3075.165;0.07000869;-0.6660259;143.81812;-9786.785;-9642.967;-3960.6335;0.0;0.0;1838.2656
3075.17;0.07002197;-0.665755;143.87762;-9786.55;-9642.672;-3959.2588;0.0;0.0;1838.2656
3075.175;0.07003589;-0.66571784;143.93997;-9786.44;-9642.5;-3959.1785;0.0;0.0;1838.2656
3075.18;0.070050284;-0.66582215;144.00253;-9786.521;-9642.519;-3959.879;0.0;0.0;1838.2656
3075.185;0.07006406;-0.66602194;144.06024;-9786.664;-9642.604;-3961.0962;0.0;0.0;1838.2656
3075.19;0.07007588;-0.6660616;144.11212;-9786.359;-9642.247;-3961.4187;0.0;0.0;1838.2656
3075.195;0.0700866;-0.6666037;144.15738;-9786.846;-9642.688;-3964.4985;0.0;0.0;1838.2656
3075.2;0.070094995;-0.6669993;144.19118;-9786.904;-9642.713;-3966.7478;0.0;0.0;1838.2656
3075.205;0.07010002;-0.66753954;144.21243;-9787.24;-9643.027;-3969.7698;0.0;0.0;1838.2656
3075.21;0.070102274;-0.6680696;144.22177;-9787.455;-9643.233;-3972.7117;0.0;0.0;1838.2656
3075.215;0.07010156;-0.66875213;144.21933;-9787.882;-9643.662;-3976.471;0.0;0.0;1838.2656
3075.22;0.07009816;-0.6692853;144.2073;-9788.031;-9643.824;-3979.387;0.0;0.0;1838.2656
3075.225;0.07009292;-0.6698988;144.18713;-9788.317;-9644.13;-3982.7302;0.0;0.0;1838.2656
3075.23;0.07008575;-0.6703018;144.16293;-9788.275;-9644.112;-3984.9043;0.0;0.0;1838.2656
3075.235;0.070078716;-0.6710937;144.13776;-9788.914;-9644.776;-3989.221;0.0;0.0;1838.2656
3075.24;0.07007129;-0.6714025;144.113;-9788.719;-9644.605;-3990.8745;0.0;0.0;1838.2656
3075.245;0.07006456;-0.6719974;144.0922;-9789.094;-9645.002;-3994.1138;0.0;0.0;1838.2656
3075.25;0.070059195;-0.67233366;144.07625;-9789.0;-9644.924;-3995.936;0.0;0.0;1838.2656
3075.255;0.07005491;-0.67289215;144.06714;-9789.306;-9645.238;-3998.9978;0.0;0.0;1838.2656
3075.26;0.07005279;-0.6732555;144.06494;-9789.311;-9645.246;-4000.997;0.0;0.0;1838.2656
3075.265;0.07005184;-0.6737301;144.06583;-9789.506;-9645.44;-4003.6162;0.0;0.0;1838.2656
3075.27;0.07005104;-0.6741304;144.06786;-9789.597;-9645.529;-4005.828;0.0;0.0;1838.2656
3075.275;0.07005053;-0.67458063;144.06804;-9789.756;-9645.6875;-4008.3113;0.0;0.0;1838.2656
3075.28;0.070048556;-0.67511535;144.06137;-9790.132;-9646.07;-4011.2468;0.0;0.0;1838.2656
3075.285;0.07004462;-0.67544246;144.04471;-9790.242;-9646.197;-4013.0173;0.0;0.0;1838.2656
3075.29;0.07003766;-0.67575175;144.01517;-9790.182;-9646.166;-4014.664;0.0;0.0;1838.2656
3075.295;0.070027396;-0.67621934;143.97195;-9790.641;-9646.669;-4017.1562;0.0;0.0;1838.2656
3075.3;0.07001384;-0.67644787;143.91522;-9790.613;-9646.698;-4018.3032;0.0;0.0;1838.2656
3075.305;0.069997124;-0.67653304;143.84601;-9790.518;-9646.672;-4018.6343;0.0;0.0;1838.2656
3075.31;0.06997772;-0.6766687;143.76657;-9790.594;-9646.827;-4019.2239;0.0;0.0;1838.2656
3075.315;0.06995634;-0.6766707;143.68127;-9790.584;-9646.902;-4019.0637;0.0;0.0;1838.2656
3075.32;0.06993444;-0.6767214;143.59491;-9790.695;-9647.101;-4019.171;0.0;0.0;1838.2656
3075.325;0.06991285;-0.67664444;143.51358;-9790.746;-9647.232;-4018.5837;0.0;0.0;1838.2656
3075.33;0.06989376;-0.67622924;143.44223;-9790.238;-9646.796;-4016.1514;0.0;0.0;1838.2656
3075.335;0.06987734;-0.675943;143.38577;-9790.086;-9646.7;-4014.4602;0.0;0.0;1838.2656
3075.34;0.069865696;-0.67560554;143.34933;-9789.892;-9646.542;-4012.5261;0.0;0.0;1838.2656
3075.345;0.06985914;-0.6750397;143.3319;-9789.291;-9645.959;-4009.3708;0.0;0.0;1838.2656
3075.35;0.069856726;-0.6746946;143.33212;-9789.064;-9645.732;-4007.468;0.0;0.0;1838.2656
3075.355;0.06985865;-0.674133;143.34892;-9788.385;-9645.036;-4004.4043;0.0;0.0;1838.2656
3075.36;0.06986407;-0.6737529;143.38008;-9787.973;-9644.593;-4002.3708;0.0;0.0;1838.2656
3075.365;0.069872685;-0.67330456;143.42169;-9787.398;-9643.977;-3999.9812;0.0;0.0;1838.2656
3075.37;0.069882914;-0.6730727;143.46901;-9787.102;-9643.633;-3998.797;0.0;0.0;1838.2656
3075.375;0.06989397;-0.67300785;143.51833;-9786.972;-9643.453;-3998.5383;0.0;0.0;1838.2656
3075.38;0.069904886;-0.673031;143.56435;-9786.91;-9643.346;-3998.7578;0.0;0.0;1838.2656
3075.385;0.06991404;-0.67283696;143.6015;-9786.4;-9642.799;-3997.7622;0.0;0.0;1838.2656
3075.39;0.06992046;-0.6726722;143.63028;-9785.828;-9642.198;-3996.9114;0.0;0.0;1838.2656
3075.395;0.0699254;-0.67283857;143.64847;-9785.844;-9642.195;-3997.8652;0.0;0.0;1838.2656
3075.4;0.06992664;-0.6731727;143.65468;-9786.096;-9642.441;-3999.7202;0.0;0.0;1838.2656
3075.405;0.06992576;-0.6734577;143.65067;-9786.256;-9642.605;-4001.2837;0.0;0.0;1838.2656
3075.41;0.069922075;-0.67358106;143.63724;-9786.084;-9642.446;-4001.937;0.0;0.0;1838.2656
3075.415;0.06991679;-0.67381454;143.61734;-9786.118;-9642.501;-4003.185;0.0;0.0;1838.2656
3075.42;0.06991008;-0.67391795;143.59297;-9785.984;-9642.392;-4003.7063;0.0;0.0;1838.2656
3075.425;0.06990271;-0.67408234;143.56665;-9785.99;-9642.424;-4004.5603;0.0;0.0;1838.2656
3075.43;0.0698952;-0.6741714;143.53766;-9785.856;-9642.318;-4004.9934;0.0;0.0;1838.2656
3075.435;0.06988662;-0.67418075;143.50731;-9785.662;-9642.155;-4004.9844;0.0;0.0;1838.2656
3075.44;0.069878556;-0.67417336;143.47888;-9785.453;-9641.975;-4004.887;0.0;0.0;1838.2656
3075.445;0.06987094;-0.6740066;143.45367;-9785.088;-9641.634;-4003.9167;0.0;0.0;1838.2656
3075.45;0.06986448;-0.67386615;143.43161;-9784.797;-9641.365;-4003.0981;0.0;0.0;1838.2656
3075.455;0.06985845;-0.6739135;143.41013;-9784.723;-9641.3125;-4003.3164;0.0;0.0;1838.2656
3075.46;0.06985227;-0.6737263;143.39038;-9784.356;-9640.966;-4002.2444;0.0;0.0;1838.2656
3075.465;0.06984716;-0.6735033;143.37534;-9783.908;-9640.533;-4000.9844;0.0;0.0;1838.2656
3075.47;0.06984339;-0.67337126;143.36653;-9783.611;-9640.245;-4000.2388;0.0;0.0;1838.2656
3075.475;0.0698414;-0.67310005;143.36438;-9783.111;-9639.747;-3998.7388;0.0;0.0;1838.2656
3075.48;0.069840975;-0.67284113;143.37207;-9782.627;-9639.255;-3997.3264;0.0;0.0;1838.2656
3075.485;0.06984382;-0.6727062;143.39218;-9782.209;-9638.816;-3996.6223;0.0;0.0;1838.2656
3075.49;0.06984948;-0.67265993;143.42381;-9781.922;-9638.498;-3996.4307;0.0;0.0;1838.2656
3075.495;0.06985794;-0.67281425;143.46596;-9781.877;-9638.411;-3997.366;0.0;0.0;1838.2656
3075.5;0.069868654;-0.67292434;143.52005;-9781.613;-9638.093;-3998.0813;0.0;0.0;1838.2656
3075.505;0.06988284;-0.67320496;143.58484;-9781.51;-9637.925;-3999.758;0.0;0.0;1838.2656
3075.51;0.06989857;-0.6736187;143.65643;-9781.356;-9637.7;-4002.1829;0.0;0.0;1838.2656
3075.515;0.069915846;-0.67412674;143.73601;-9781.396;-9637.66;-4005.1443;0.0;0.0;1838.2656
3075.52;0.06993524;-0.67488086;143.81985;-9781.598;-9637.777;-4009.4705;0.0;0.0;1838.2656
3075.525;0.06995431;-0.6756944;143.90057;-9781.69;-9637.79;-4014.1187;0.0;0.0;1838.2656
3075.53;0.06997194;-0.67675924;143.97447;-9782.034;-9638.06;-4020.1387;0.0;0.0;1838.2656
3075.535;0.06998739;-0.6779053;144.04066;-9782.451;-9638.41;-4026.5916;0.0;0.0;1838.2656
3075.54;0.07000105;-0.6793325;144.09749;-9783.167;-9639.069;-4034.5757;0.0;0.0;1838.2656
3075.545;0.070011675;-0.6806157;144.13988;-9783.463;-9639.323;-4041.737;0.0;0.0;1838.2656
3075.55;0.07001814;-0.681977;144.16483;-9783.746;-9639.581;-4049.294;0.0;0.0;1838.2656
3075.555;0.07002017;-0.683338;144.17174;-9784.093;-9639.921;-4056.8137;0.0;0.0;1838.2656
3075.56;0.070017844;-0.68494636;144.15952;-9784.826;-9640.667;-4065.659;0.0;0.0;1838.2656
3075.565;0.0700105;-0.6863438;144.12668;-9785.324;-9641.197;-4073.3;0.0;0.0;1838.2656
3075.57;0.069998294;-0.6877019;144.07414;-9785.624;-9641.55;-4080.6846;0.0;0.0;1838.2656
3075.575;0.06998148;-0.6889883;144.00488;-9785.891;-9641.886;-4087.6406;0.0;0.0;1838.2656
3075.58;0.06996134;-0.69016767;143.92136;-9786.284;-9642.363;-4093.977;0.0;0.0;1838.2656
3075.585;0.069937885;-0.6912684;143.82498;-9786.469;-9642.644;-4099.855;0.0;0.0;1838.2656
3075.59;0.06991176;-0.6921513;143.72194;-9786.6875;-9642.966;-4104.5176;0.0;0.0;1838.2656
3075.595;0.06988546;-0.6929259;143.61786;-9786.895;-9643.276;-4108.581;0.0;0.0;1838.2656
3075.6;0.069859155;-0.6934665;143.51527;-9786.707;-9643.191;-4111.3574;0.0;0.0;1838.2656
3075.605;0.06983386;-0.6937771;143.41843;-9786.489;-9643.071;-4112.8765;0.0;0.0;1838.2656
3075.61;0.06981066;-0.69404846;143.33234;-9786.332;-9643.0;-4114.201;0.0;0.0;1838.2656
3075.615;0.069790855;-0.6941762;143.26181;-9786.119;-9642.857;-4114.764;0.0;0.0;1838.2656
3075.62;0.06977545;-0.6941065;143.20749;-9785.75;-9642.543;-4114.2715;0.0;0.0;1838.2656
3075.625;0.069763646;-0.6940763;143.16919;-9785.58;-9642.411;-4114.0283;0.0;0.0;1838.2656
3075.63;0.06975608;-0.69379455;143.14806;-9785.015;-9641.866;-4112.432;0.0;0.0;1838.2656
3075.635;0.06975261;-0.69351727;143.1448;-9784.533;-9641.389;-4110.8965;0.0;0.0;1838.2656
3075.64;0.06975372;-0.693084;143.15858;-9783.872;-9640.714;-4108.5347;0.0;0.0;1838.2656
3075.645;0.06975841;-0.69285923;143.1853;-9783.649;-9640.464;-4107.3486;0.0;0.0;1838.2656
3075.65;0.06976561;-0.6925185;143.22241;-9783.174;-9639.951;-4105.5435;0.0;0.0;1838.2656
3075.655;0.069775224;-0.6923182;143.26492;-9782.947;-9639.683;-4104.524;0.0;0.0;1838.2656
3075.66;0.069784835;-0.6921813;143.31052;-9782.826;-9639.516;-4103.8604;0.0;0.0;1838.2656
3075.665;0.06979572;-0.6920849;143.35847;-9782.715;-9639.356;-4103.425;0.0;0.0;1838.2656
3075.67;0.06980631;-0.69199705;143.40201;-9782.627;-9639.225;-4103.0273;0.0;0.0;1838.2656
3075.675;0.069814876;-0.6919795;143.44086;-9782.64;-9639.199;-4103.0083;0.0;0.0;1838.2656
3075.68;0.06982313;-0.69204056;143.47562;-9782.693;-9639.218;-4103.414;0.0;0.0;1838.2656
3075.685;0.06982964;-0.6920432;143.50479;-9782.671;-9639.166;-4103.4873;0.0;0.0;1838.2656
3075.69;0.06983521;-0.69225645;143.531;-9782.936;-9639.404;-4104.716;0.0;0.0;1838.2656
3075.695;0.06984032;-0.69237113;143.55551;-9783.084;-9639.528;-4105.3975;0.0;0.0;1838.2656
3075.7;0.069845095;-0.69240457;143.57799;-9782.96;-9639.382;-4105.6265;0.0;0.0;1838.2656
3075.705;0.06984928;-0.69257116;143.59946;-9783.129;-9639.529;-4106.588;0.0;0.0;1838.2656
3075.71;0.069853544;-0.69267786;143.6213;-9783.191;-9639.57;-4107.22;0.0;0.0;1838.2656
3075.715;0.069857955;-0.6928051;143.64534;-9783.24;-9639.595;-4107.97;0.0;0.0;1838.2656
3075.72;0.069863185;-0.6931194;143.6698;-9783.523;-9639.854;-4109.7524;0.0;0.0;1838.2656
3075.725;0.06986778;-0.6933929;143.69365;-9783.791;-9640.098;-4111.308;0.0;0.0;1838.2656
3075.73;0.069872595;-0.6936883;143.71695;-9783.961;-9640.244;-4112.984;0.0;0.0;1838.2656
3075.735;0.0698768;-0.6939631;143.73776;-9784.121;-9640.384;-4114.5415;0.0;0.0;1838.2656
3075.74;0.0698803;-0.6942946;143.75415;-9784.369;-9640.615;-4116.402;0.0;0.0;1838.2656
3075.745;0.06988222;-0.6946793;143.76253;-9784.661;-9640.898;-4118.5405;0.0;0.0;1838.2656
3075.75;0.069881745;-0.6948612;143.7626;-9784.647;-9640.885;-4119.5435;0.0;0.0;1838.2656
3075.755;0.069879584;-0.69522107;143.75574;-9784.912;-9641.156;-4121.514;0.0;0.0;1838.2656
3075.76;0.06987564;-0.6954913;143.73927;-9785.043;-9641.304;-4122.9717;0.0;0.0;1838.2656
3075.765;0.069868766;-0.6959492;143.71118;-9785.576;-9641.865;-4125.441;0.0;0.0;1838.2656
3075.77;0.06985923;-0.69627666;143.67119;-9785.965;-9642.294;-4127.167;0.0;0.0;1838.2656
3075.775;0.06984668;-0.6965545;143.61938;-9786.24;-9642.621;-4128.595;0.0;0.0;1838.2656
3075.78;0.06983142;-0.69658136;143.55841;-9786.2295;-9642.671;-4128.6216;0.0;0.0;1838.2656
3075.785;0.06981462;-0.6966182;143.48935;-9786.305;-9642.815;-4128.6865;0.0;0.0;1838.2656
3075.79;0.0697956;-0.6965911;143.41489;-9786.346;-9642.931;-4128.388;0.0;0.0;1838.2656
3075.795;0.06977636;-0.69649374;143.33842;-9786.415;-9643.076;-4127.698;0.0;0.0;1838.2656
3075.8;0.06975663;-0.6963623;143.2636;-9786.436;-9643.172;-4126.8237;0.0;0.0;1838.2656
3075.805;0.06973842;-0.6959273;143.19601;-9786.068;-9642.872;-4124.29;0.0;0.0;1838.2656
3075.81;0.069722496;-0.6957143;143.13768;-9786.115;-9642.978;-4122.9985;0.0;0.0;1838.2656
3075.815;0.06970896;-0.69525266;143.09206;-9785.817;-9642.726;-4120.3613;0.0;0.0;1838.2656
3075.82;0.06969949;-0.6947102;143.0629;-9785.373;-9642.311;-4117.3115;0.0;0.0;1838.2656
3075.825;0.0696941;-0.6942853;143.05276;-9785.182;-9642.129;-4114.9478;0.0;0.0;1838.2656
3075.83;0.069694035;-0.6937742;143.06366;-9784.662;-9641.599;-4112.1514;0.0;0.0;1838.2656
3075.835;0.06969881;-0.6933208;143.09497;-9784.302;-9641.207;-4109.7134;0.0;0.0;1838.2656
3075.84;0.06970867;-0.69313514;143.14871;-9784.18;-9641.031;-4108.797;0.0;0.0;1838.2656
3075.845;0.069724165;-0.69303995;143.22253;-9784.244;-9641.021;-4108.42;0.0;0.0;1838.2656
3075.85;0.06974346;-0.69301534;143.31076;-9784.225;-9640.914;-4108.4604;0.0;0.0;1838.2656
3075.855;0.06976557;-0.693127;143.40912;-9784.152;-9640.743;-4109.273;0.0;0.0;1838.2656
3075.86;0.06978932;-0.693412;143.50993;-9784.35;-9640.84;-4111.0464;0.0;0.0;1838.2656
3075.865;0.06981223;-0.693791;143.60625;-9784.465;-9640.858;-4113.3286;0.0;0.0;1838.2656
3075.87;0.0698333;-0.6944344;143.69226;-9784.929;-9641.236;-4117.049;0.0;0.0;1838.2656
3075.875;0.06985081;-0.6952682;143.7619;-9785.498;-9641.736;-4121.7866;0.0;0.0;1838.2656
3075.88;0.06986362;-0.6961261;143.81229;-9786.053;-9642.24;-4126.6187;0.0;0.0;1838.2656
3075.885;0.069871575;-0.6970159;143.84119;-9786.622;-9642.781;-4131.5835;0.0;0.0;1838.2656
3075.89;0.06987385;-0.697973;143.8455;-9787.168;-9643.322;-4136.8706;0.0;0.0;1838.2656
3075.895;0.069869846;-0.6988267;143.8259;-9787.608;-9643.782;-4141.539;0.0;0.0;1838.2656
3075.9;0.06986062;-0.69960046;143.78522;-9787.896;-9644.111;-4145.725;0.0;0.0;1838.2656
3075.905;0.069846556;-0.7003374;143.7269;-9788.215;-9644.488;-4149.6724;0.0;0.0;1838.2656
3075.91;0.06982904;-0.7008928;143.6561;-9788.234;-9644.578;-4152.5938;0.0;0.0;1838.2656
3075.915;0.069809094;-0.7015006;143.57423;-9788.512;-9644.9375;-4155.7817;0.0;0.0;1838.2656
3075.92;0.069786556;-0.70195234;143.48434;-9788.616;-9645.132;-4158.0933;0.0;0.0;1838.2656
3075.925;0.06976296;-0.70231664;143.39194;-9788.756;-9645.364;-4159.9175;0.0;0.0;1838.2656
3075.93;0.06973952;-0.7027376;143.30133;-9789.131;-9645.829;-4162.0576;0.0;0.0;1838.2656
3075.935;0.06971702;-0.70313275;143.217;-9789.57;-9646.354;-4164.0684;0.0;0.0;1838.2656
3075.94;0.06969685;-0.7032296;143.13864;-9789.573;-9646.435;-4164.446;0.0;0.0;1838.2656
3075.945;0.069677465;-0.7032151;143.06775;-9789.57;-9646.503;-4164.224;0.0;0.0;1838.2656
3075.95;0.06966104;-0.70301116;143.00893;-9789.275;-9646.267;-4162.9814;0.0;0.0;1838.2656
3075.955;0.069647685;-0.7027141;142.9618;-9788.893;-9645.931;-4161.249;0.0;0.0;1838.2656
3075.96;0.06963697;-0.70247203;142.92569;-9788.738;-9645.8125;-4159.842;0.0;0.0;1838.2656
3075.965;0.069629006;-0.70203924;142.90176;-9788.168;-9645.267;-4157.407;0.0;0.0;1838.2656
3075.97;0.069624215;-0.7016946;142.8914;-9787.914;-9645.022;-4155.486;0.0;0.0;1838.2656
3075.975;0.069622785;-0.7010814;142.89273;-9787.206;-9644.313;-4152.107;0.0;0.0;1838.2656
3075.98;0.0696236;-0.70065945;142.90137;-9786.773;-9643.872;-4149.7974;0.0;0.0;1838.2656
3075.985;0.06962563;-0.7001305;142.91495;-9786.184;-9643.269;-4146.907;0.0;0.0;1838.2656
3075.99;0.069628686;-0.6996611;142.93147;-9785.732;-9642.801;-4144.352;0.0;0.0;1838.2656
3075.995;0.06963207;-0.6993145;142.9515;-9785.459;-9642.508;-4142.4805;0.0;0.0;1838.2656
3076.0;0.069636755;-0.6988736;142.97433;-9785.016;-9642.041;-4140.0947;0.0;0.0;1838.2656
3076.005;0.06964135;-0.6985219;142.997;-9784.738;-9641.741;-4138.2;0.0;0.0;1838.2656
3076.01;0.069645844;-0.69824564;143.01672;-9784.62;-9641.604;-4136.7163;0.0;0.0;1838.2656
3076.015;0.06964907;-0.6980034;143.03377;-9784.605;-9641.571;-4135.4146;0.0;0.0;1838.2656
3076.02;0.06965214;-0.69788766;143.04973;-9784.703;-9641.653;-4134.808;0.0;0.0;1838.2656
3076.025;0.06965486;-0.6976005;143.06415;-9784.59;-9641.525;-4133.253;0.0;0.0;1838.2656
3076.03;0.06965717;-0.6972126;143.07776;-9784.283;-9641.205;-4131.1416;0.0;0.0;1838.2656
3076.035;0.069659464;-0.69669455;143.08983;-9783.84;-9640.75;-4128.3086;0.0;0.0;1838.2656
3076.04;0.06966091;-0.696263;143.09898;-9783.567;-9640.469;-4125.947;0.0;0.0;1838.2656
3076.045;0.06966174;-0.69588774;143.10384;-9783.328;-9640.225;-4123.887;0.0;0.0;1838.2656
3076.05;0.06966095;-0.69562787;143.10194;-9783.409;-9640.308;-4122.45;0.0;0.0;1838.2656
3076.055;0.06965849;-0.6951806;143.09448;-9783.146;-9640.052;-4119.9688;0.0;0.0;1838.2656
3076.06;0.06965493;-0.69465655;143.07994;-9782.871;-9639.791;-4117.05;0.0;0.0;1838.2656
3076.065;0.06964906;-0.6942393;143.05615;-9782.779;-9639.723;-4114.701;0.0;0.0;1838.2656
3076.07;0.069641024;-0.6938989;143.02454;-9782.925;-9639.9;-4112.7607;0.0;0.0;1838.2656
3076.075;0.06963147;-0.6934624;142.98643;-9782.994;-9640.008;-4110.277;0.0;0.0;1838.2656
3076.08;0.069620535;-0.69286424;142.94406;-9782.735;-9639.791;-4106.894;0.0;0.0;1838.2656
3076.085;0.06960911;-0.6922123;142.9021;-9782.528;-9639.626;-4103.2144;0.0;0.0;1838.2656
3076.09;0.06959868;-0.691475;142.86453;-9782.164;-9639.3;-4099.0728;0.0;0.0;1838.2656
3076.095;0.0695897;-0.69078845;142.8346;-9782.008;-9639.173;-4095.2273;0.0;0.0;1838.2656
3076.1;0.0695833;-0.69011664;142.81999;-9781.818;-9638.998;-4091.493;0.0;0.0;1838.2656
3076.105;0.069581926;-0.689448;142.82338;-9781.619;-9638.796;-4087.8125;0.0;0.0;1838.2656
3076.11;0.06958443;-0.6885974;142.84543;-9781.027;-9638.182;-4083.1655;0.0;0.0;1838.2656
3076.115;0.06959214;-0.6878811;142.88843;-9780.676;-9637.787;-4079.3013;0.0;0.0;1838.2656
