time;temperature;pressure;kinetic_energy;potential_energy;total_energy;virial;msd;diffusion;volume
930.005;0.9295132;0.67567104;1910.8076;-6667.174;-4756.366;-95.42676;0.0;0.0;1838.2656
930.01;0.92954844;0.67480654;1910.7703;-6668.1694;-4757.3994;-100.119545;0.0;0.0;1838.2656
930.015;0.9294693;0.67483616;1910.2019;-6668.3057;-4758.1035;-98.819405;0.0;0.0;1838.2656
930.02;0.92924964;0.67597336;1909.1104;-6667.646;-4758.5356;-90.36494;0.0;0.0;1838.2656
930.025;0.9289336;0.67871106;1907.7874;-6665.833;-4758.046;-72.621254;0.0;0.0;1838.2656
930.03;0.928628;0.68309385;1906.6985;-6662.673;-4755.9746;-46.27307;0.0;0.0;1838.2656
930.035;0.9284493;0.6884325;1906.2769;-6658.8374;-4752.5605;-15.988133;0.0;0.0;1838.2656
930.04;0.92847866;0.6929974;1906.7402;-6656.211;-4749.4707;8.2595625;0.0;0.0;1838.2656
930.045;0.92871886;0.6967064;1907.9875;-6654.131;-4746.1436;26.219187;0.0;0.0;1838.2656
930.05;0.92910683;0.6982848;1909.7107;-6653.8687;-4744.158;31.477343;0.0;0.0;1838.2656
930.055;0.92955077;0.6976868;1911.5457;-6655.295;-4743.749;24.509668;0.0;0.0;1838.2656
930.06;0.9299695;0.6948338;1913.1747;-6658.4355;-4745.2607;5.5180926;0.0;0.0;1838.2656
930.065;0.9302919;0.69032633;1914.3091;-6663.091;-4748.7817;-21.60863;0.0;0.0;1838.2656
930.07;0.930455;0.68496484;1914.7073;-6668.2637;-4753.5566;-51.97264;0.0;0.0;1838.2656
930.075;0.9304096;0.68044597;1914.1932;-6672.4453;-4758.252;-75.86526;0.0;0.0;1838.2656
930.08;0.9301312;0.67768407;1912.7158;-6674.992;-4762.2764;-88.14164;0.0;0.0;1838.2656
930.085;0.929631;0.6776157;1910.3792;-6675.4453;-4765.0664;-83.84543;0.0;0.0;1838.2656
930.09;0.92895955;0.68092364;1907.4749;-6673.441;-4765.966;-59.7941;0.0;0.0;1838.2656
930.095;0.928218;0.68845195;1904.4426;-6668.1084;-4763.666;-12.212776;0.0;0.0;1838.2656
930.1;0.9275214;0.6995112;1901.7697;-6660.0195;-4758.25;54.122704;0.0;0.0;1838.2656
930.105;0.92698663;0.71314245;1899.8759;-6650.3936;-4750.5176;133.08395;0.0;0.0;1838.2656
930.11;0.92669016;0.7281308;1899.042;-6640.004;-4740.962;217.40942;0.0;0.0;1838.2656
930.115;0.9266793;0.74306196;1899.3828;-6629.8213;-4730.4385;299.07004;0.0;0.0;1838.2656
930.12;0.9269476;0.7566446;1900.7944;-6620.83;-4720.0356;371.15244;0.0;0.0;1838.2656
930.125;0.92743415;0.7671909;1902.929;-6614.5527;-4711.624;425.04385;0.0;0.0;1838.2656
930.13;0.92802024;0.774827;1905.2772;-6610.206;-4704.9287;462.459;0.0;0.0;1838.2656
930.135;0.9285771;0.77945846;1907.355;-6607.67;-4700.315;483.84506;0.0;0.0;1838.2656
930.14;0.92900676;0.781548;1908.8181;-6606.872;-4698.0537;492.44232;0.0;0.0;1838.2656
930.145;0.9292527;0.78190166;1909.5417;-6606.8413;-4697.3;492.9454;0.0;0.0;1838.2656
930.15;0.9293279;0.78134745;1909.6824;-6607.1504;-4697.468;489.60788;0.0;0.0;1838.2656
930.155;0.92931247;0.7803715;1909.6892;-6607.0347;-4697.3457;484.21176;0.0;0.0;1838.2656
930.16;0.92934906;0.778407;1910.0996;-6607.617;-4697.5176;472.55704;0.0;0.0;1838.2656
930.165;0.92954725;0.7747922;1911.2253;-6609.301;-4698.075;450.37103;0.0;0.0;1838.2656
930.17;0.92992806;0.768703;1913.0361;-6612.673;-4699.6367;413.1685;0.0;0.0;1838.2656
930.175;0.9304414;0.75966495;1915.2429;-6618.1147;-4702.872;358.91205;0.0;0.0;1838.2656
930.18;0.93098766;0.7474422;1917.4116;-6626.0615;-4708.65;287.16855;0.0;0.0;1838.2656
930.185;0.93145555;0.7325315;1919.1077;-6635.782;-4716.675;201.54704;0.0;0.0;1838.2656
930.19;0.9317482;0.71611536;1920.0215;-6646.2275;-4726.206;109.18783;0.0;0.0;1838.2656
930.195;0.9318247;0.6991542;1920.0374;-6656.659;-4736.622;15.618565;0.0;0.0;1838.2656
930.2;0.93168145;0.68310106;1919.2454;-6666.049;-4746.8037;-71.32702;0.0;0.0;1838.2656
930.205;0.93137217;0.6685164;1917.8389;-6674.146;-4756.307;-148.94543;0.0;0.0;1838.2656
930.21;0.9309395;0.65622514;1915.9985;-6680.534;-4764.5356;-213.04881;0.0;0.0;1838.2656
930.215;0.93042713;0.64702773;1913.8352;-6684.291;-4770.456;-259.4439;0.0;0.0;1838.2656
930.22;0.92984474;0.6409089;1911.3862;-6685.9604;-4774.574;-288.29007;0.0;0.0;1838.2656
930.225;0.92920744;0.63806206;1908.7827;-6685.5576;-4776.775;-298.78265;0.0;0.0;1838.2656
930.23;0.9285739;0.6389343;1906.29;-6682.3438;-4776.0537;-288.9871;0.0;0.0;1838.2656
930.235;0.9280209;0.6428289;1904.2954;-6677.1436;-4772.848;-263.52005;0.0;0.0;1838.2656
930.24;0.9276606;0.6489263;1903.2107;-6670.424;-4767.213;-227.72458;0.0;0.0;1838.2656
930.245;0.92757136;0.6553403;1903.3081;-6664.2656;-4760.9575;-192.54764;0.0;0.0;1838.2656
930.25;0.92779046;0.66080767;1904.6034;-6659.466;-4754.8623;-164.98663;0.0;0.0;1838.2656
930.255;0.92826444;0.6642978;1906.714;-6656.4824;-4749.7686;-149.96045;0.0;0.0;1838.2656
930.26;0.9288438;0.66553885;1908.9951;-6655.2354;-4746.24;-147.67873;0.0;0.0;1838.2656
930.265;0.92936605;0.66415316;1910.8784;-6656.302;-4745.4233;-159.08716;0.0;0.0;1838.2656
930.27;0.929735;0.6611266;1912.0955;-6658.685;-4746.59;-178.2118;0.0;0.0;1838.2656
930.275;0.929934;0.6573596;1912.7006;-6661.536;-4748.8354;-200.19646;0.0;0.0;1838.2656
930.28;0.9300131;0.65335286;1912.852;-6664.762;-4751.91;-222.5958;0.0;0.0;1838.2656
930.285;0.92999595;0.64958686;1912.6373;-6667.8936;-4755.2563;-242.93512;0.0;0.0;1838.2656
930.29;0.92989963;0.6465481;1912.1057;-6670.373;-4758.2676;-258.62994;0.0;0.0;1838.2656
930.295;0.92972976;0.6445795;1911.2848;-6672.292;-4761.0073;-267.84427;0.0;0.0;1838.2656
930.3;0.9294983;0.6437115;1910.2637;-6673.409;-4763.1455;-270.58908;0.0;0.0;1838.2656
930.305;0.92923725;0.6445782;1909.1754;-6673.0254;-4763.85;-263.63272;0.0;0.0;1838.2656
930.31;0.9289827;0.64678085;1908.1777;-6671.4736;-4763.296;-249.4906;0.0;0.0;1838.2656
930.315;0.9287747;0.6498277;1907.4325;-6669.399;-4761.9663;-231.19711;0.0;0.0;1838.2656
930.32;0.92864877;0.6537083;1907.0608;-6666.59;-4759.5293;-209.0531;0.0;0.0;1838.2656
930.325;0.9286261;0.6572723;1907.1284;-6664.0273;-4756.899;-189.53366;0.0;0.0;1838.2656
930.33;0.9287118;0.6602215;1907.6375;-6662.0938;-4754.456;-174.28748;0.0;0.0;1838.2656
930.335;0.92889655;0.6621138;1908.5072;-6660.873;-4752.3657;-165.5913;0.0;0.0;1838.2656
930.34;0.929149;0.66230565;1909.63;-6661.06;-4751.43;-166.77902;0.0;0.0;1838.2656
930.345;0.9294435;0.660992;1910.8984;-6662.2144;-4751.316;-176.56017;0.0;0.0;1838.2656
930.35;0.9297492;0.6578597;1912.1506;-6664.735;-4752.584;-196.3386;0.0;0.0;1838.2656
930.355;0.9300176;0.6534153;1913.2017;-6668.1206;-4754.919;-222.95042;0.0;0.0;1838.2656
930.36;0.93021363;0.6476686;1913.9629;-6672.573;-4758.6104;-256.1649;0.0;0.0;1838.2656
930.365;0.93033874;0.6411456;1914.4536;-6677.681;-4763.2275;-293.11948;0.0;0.0;1838.2656
930.37;0.93040377;0.63450027;1914.6787;-6682.832;-4768.1533;-330.21738;0.0;0.0;1838.2656
930.375;0.9303999;0.62803584;1914.5676;-6687.744;-4773.177;-365.64505;0.0;0.0;1838.2656
930.38;0.93030155;0.6221455;1914.0082;-6692.3193;-4778.311;-397.01038;0.0;0.0;1838.2656
930.385;0.9300869;0.6174684;1913.0085;-6695.971;-4782.963;-420.80417;0.0;0.0;1838.2656
930.39;0.92979497;0.61455417;1911.7981;-6698.265;-4786.467;-434.45493;0.0;0.0;1838.2656
930.395;0.92950416;0.61351;1910.7446;-6699.126;-4788.3813;-438.1062;0.0;0.0;1838.2656
930.4;0.9293098;0.6135817;1910.1576;-6699.3794;-4789.2217;-436.5368;0.0;0.0;1838.2656
930.405;0.9292534;0.6139883;1910.1082;-6699.842;-4789.7334;-434.1956;0.0;0.0;1838.2656
930.41;0.92930937;0.61440533;1910.3599;-6700.7915;-4790.4316;-432.39914;0.0;0.0;1838.2656
930.415;0.92937714;0.61497504;1910.4729;-6701.7744;-4791.302;-429.48355;0.0;0.0;1838.2656
930.42;0.9293434;0.6162145;1910.0164;-6702.2603;-4792.244;-421.73495;0.0;0.0;1838.2656
930.425;0.92912793;0.618627;1908.8146;-6702.008;-4793.1934;-406.0268;0.0;0.0;1838.2656
930.43;0.9287455;0.6234273;1907.0823;-6699.6484;-4792.5664;-376.08972;0.0;0.0;1838.2656
930.435;0.9283012;0.6306372;1905.3043;-6695.477;-4790.173;-332.77234;0.0;0.0;1838.2656
930.44;0.92792475;0.6397644;1903.9456;-6690.1567;-4786.211;-279.7203;0.0;0.0;1838.2656
930.445;0.9277004;0.64981717;1903.2775;-6684.459;-4781.1816;-222.9452;0.0;0.0;1838.2656
930.45;0.9276623;0.6604644;1903.3855;-6678.119;-4774.7334;-164.44392;0.0;0.0;1838.2656
930.455;0.92781043;0.67012084;1904.2349;-6672.9897;-4768.755;-112.889404;0.0;0.0;1838.2656
930.46;0.92811817;0.6780843;1905.635;-6669.2866;-4763.6514;-71.77264;0.0;0.0;1838.2656
930.465;0.9285056;0.68419707;1907.2083;-6666.8335;-4759.625;-41.208622;0.0;0.0;1838.2656
930.47;0.9288679;0.68837357;1908.5232;-6665.8335;-4757.3105;-20.805977;0.0;0.0;1838.2656
930.475;0.92910904;0.6912351;1909.3298;-6665.5874;-4756.258;-6.638236;0.0;0.0;1838.2656
930.48;0.9292183;0.6932113;1909.606;-6665.714;-4756.108;3.707778;0.0;0.0;1838.2656
930.485;0.92920184;0.6949417;1909.421;-6666.051;-4756.63;13.620168;0.0;0.0;1838.2656
930.49;0.92908984;0.6972925;1908.843;-6665.2197;-4756.377;27.740387;0.0;0.0;1838.2656
930.495;0.92888874;0.7002797;1907.9536;-6663.9766;-4756.023;45.99313;0.0;0.0;1838.2656
930.5;0.9286462;0.7041728;1907.0508;-6661.6562;-4754.6055;69.26823;0.0;0.0;1838.2656
930.505;0.9284675;0.7085122;1906.5846;-6658.835;-4752.2505;94.13176;0.0;0.0;1838.2656
930.51;0.92845994;0.7124125;1906.9103;-6656.4346;-4749.5244;114.98942;0.0;0.0;1838.2656
930.515;0.9286681;0.7147991;1908.0656;-6655.279;-4747.2134;125.84064;0.0;0.0;1838.2656
930.52;0.92904377;0.71471304;1909.7471;-6655.9756;-4746.2285;122.00324;0.0;0.0;1838.2656
930.525;0.9294767;0.7124416;1911.4926;-6658.0454;-4746.5527;105.98583;0.0;0.0;1838.2656
930.53;0.9298574;0.7076873;1912.9172;-6661.8594;-4748.9424;76.91744;0.0;0.0;1838.2656
930.535;0.9301178;0.701278;1913.8131;-6666.817;-4753.004;39.779182;0.0;0.0;1838.2656
930.54;0.9302368;0.6939344;1914.1353;-6672.1846;-4758.0493;-1.3632871;0.0;0.0;1838.2656
930.545;0.9302212;0.68702084;1913.9094;-6676.324;-4762.415;-39.038387;0.0;0.0;1838.2656
930.55;0.9300828;0.68052655;1913.2017;-6680.1284;-4766.927;-73.43765;0.0;0.0;1838.2656
930.555;0.9298467;0.67529607;1912.1177;-6682.7817;-4770.664;-100.114655;0.0;0.0;1838.2656
930.56;0.92954403;0.6711966;1910.8319;-6684.644;-4773.812;-120.15094;0.0;0.0;1838.2656
930.565;0.92923564;0.66894114;1909.6692;-6684.847;-4775.1777;-130.26393;0.0;0.0;1838.2656
930.57;0.92901903;0.6677379;1908.9874;-6684.2705;-4775.283;-135.53609;0.0;0.0;1838.2656
930.575;0.9289541;0.6668727;1908.9089;-6683.7344;-4774.825;-140.15039;0.0;0.0;1838.2656
930.58;0.9290194;0.6657011;1909.2332;-6683.712;-4774.4785;-147.25993;0.0;0.0;1838.2656
930.585;0.92913324;0.6640441;1909.6964;-6683.973;-4774.277;-157.32452;0.0;0.0;1838.2656
930.59;0.92925996;0.6615936;1910.2649;-6684.9585;-4774.6934;-171.9753;0.0;0.0;1838.2656
930.595;0.9294317;0.6582449;1911.1111;-6686.5986;-4775.4873;-192.13528;0.0;0.0;1838.2656
930.6;0.9296949;0.6532663;1912.3513;-6689.6475;-4777.296;-222.07152;0.0;0.0;1838.2656
930.605;0.9300408;0.64660126;1913.7627;-6694.3174;-4780.5547;-261.65088;0.0;0.0;1838.2656
930.61;0.9303548;0.63862777;1914.8274;-6699.8213;-4784.994;-307.7525;0.0;0.0;1838.2656
930.615;0.930503;0.6298614;1915.0876;-6705.9346;-4790.8467;-356.61755;0.0;0.0;1838.2656
930.62;0.930418;0.62192494;1914.4146;-6710.996;-4796.5815;-399.03937;0.0;0.0;1838.2656
930.625;0.93012667;0.6156129;1913.0378;-6714.4736;-4801.4355;-431.0955;0.0;0.0;1838.2656
930.63;0.9297207;0.6114807;1911.3071;-6716.238;-4804.9307;-450.42242;0.0;0.0;1838.2656
930.635;0.92927706;0.60937726;1909.5039;-6716.818;-4807.314;-458.41602;0.0;0.0;1838.2656
930.64;0.928851;0.60975605;1907.8115;-6715.307;-4807.4956;-452.94238;0.0;0.0;1838.2656
930.645;0.92847365;0.6119859;1906.3761;-6712.675;-4806.299;-437.774;0.0;0.0;1838.2656
930.65;0.92818254;0.61593115;1905.3121;-6708.5537;-4803.2417;-413.88922;0.0;0.0;1838.2656
930.655;0.92799175;0.6207016;1904.6931;-6704.2334;-4799.54;-386.34293;0.0;0.0;1838.2656
930.66;0.9279186;0.62582934;1904.5371;-6699.822;-4795.2847;-357.75247;0.0;0.0;1838.2656
930.665;0.92795;0.63107514;1904.835;-6694.8965;-4790.0615;-329.41882;0.0;0.0;1838.2656
930.67;0.928091;0.6353099;1905.5662;-6691.447;-4785.881;-307.52725;0.0;0.0;1838.2656
930.675;0.92832375;0.6382544;1906.6376;-6688.917;-4782.2793;-293.4317;0.0;0.0;1838.2656
930.68;0.92861557;0.64002246;1907.9017;-6687.1973;-4779.2954;-286.2095;0.0;0.0;1838.2656
930.685;0.9289248;0.64010084;1909.1324;-6687.053;-4777.921;-288.23892;0.0;0.0;1838.2656
930.69;0.9291817;0.63891953;1910.0548;-6687.925;-4777.87;-296.59824;0.0;0.0;1838.2656
930.695;0.9293268;0.6371256;1910.4503;-6689.286;-4778.836;-307.28238;0.0;0.0;1838.2656
930.7;0.9293235;0.63580287;1910.2424;-6689.8926;-4779.6504;-314.1613;0.0;0.0;1838.2656
930.705;0.9291815;0.63503385;1909.5242;-6690.282;-4780.758;-316.96576;0.0;0.0;1838.2656
930.71;0.928944;0.6356045;1908.4673;-6689.8184;-4781.351;-311.70496;0.0;0.0;1838.2656
930.715;0.9286533;0.63782316;1907.23;-6688.0156;-4780.7856;-296.99478;0.0;0.0;1838.2656
930.72;0.92834145;0.6419869;1905.9236;-6684.6436;-4778.7197;-271.4197;0.0;0.0;1838.2656
930.725;0.9280323;0.6478891;1904.6796;-6679.9287;-4775.249;-236.38258;0.0;0.0;1838.2656
930.73;0.9277673;0.65505725;1903.7053;-6674.4004;-4770.6953;-194.9031;0.0;0.0;1838.2656
930.735;0.9276068;0.6629963;1903.2382;-6668.522;-4765.2837;-150.18637;0.0;0.0;1838.2656
930.74;0.92759806;0.67087996;1903.4033;-6662.862;-4759.4585;-107.03991;0.0;0.0;1838.2656
930.745;0.92774206;0.6781039;1904.1609;-6657.579;-4753.418;-68.71642;0.0;0.0;1838.2656
930.75;0.9280111;0.6837629;1905.3635;-6653.757;-4748.3936;-39.913605;0.0;0.0;1838.2656
930.755;0.9283597;0.68765163;1906.8447;-6650.997;-4744.1523;-21.430304;0.0;0.0;1838.2656
930.76;0.9287531;0.689236;1908.4656;-6649.9893;-4741.5234;-15.934741;0.0;0.0;1838.2656
930.765;0.92916065;0.68836915;1910.1377;-6650.645;-4740.5073;-24.059294;0.0;0.0;1838.2656
930.77;0.92957217;0.6847986;1911.8452;-6653.4824;-4741.637;-47.165176;0.0;0.0;1838.2656
930.775;0.92999035;0.67878795;1913.6226;-6657.9595;-4744.337;-83.86747;0.0;0.0;1838.2656
930.78;0.9304193;0.67038167;1915.3557;-6664.0537;-4748.698;-133.69281;0.0;0.0;1838.2656
930.785;0.93078125;0.6602134;1916.6515;-6670.959;-4754.3076;-192.36017;0.0;0.0;1838.2656
930.79;0.93096584;0.648785;1917.1322;-6678.8193;-4761.687;-256.34683;0.0;0.0;1838.2656
930.795;0.93092865;0.6370176;1916.8043;-6686.7837;-4769.9795;-320.5859;0.0;0.0;1838.2656
930.8;0.9307419;0.6261564;1916.0132;-6693.7476;-4777.7344;-378.90097;0.0;0.0;1838.2656
930.805;0.930505;0.61650133;1915.0907;-6699.554;-4784.4634;-430.30188;0.0;0.0;1838.2656
930.81;0.9302716;0.60791016;1914.1328;-6704.741;-4790.6084;-475.76453;0.0;0.0;1838.2656
930.815;0.93002754;0.600625;1913.0767;-6708.925;-4795.848;-513.8287;0.0;0.0;1838.2656
930.82;0.92975855;0.595019;1911.8994;-6711.4717;-4799.5723;-542.39014;0.0;0.0;1838.2656
930.825;0.9294735;0.5907453;1910.7406;-6713.1406;-4802.4;-563.6409;0.0;0.0;1838.2656
930.83;0.92923373;0.58775;1909.8682;-6713.8184;-4803.95;-578.41455;0.0;0.0;1838.2656
930.835;0.92909896;0.58558834;1909.4573;-6714.0557;-4804.5986;-589.51373;0.0;0.0;1838.2656
930.84;0.9290768;0.5835086;1909.4728;-6714.2627;-4804.79;-601.0142;0.0;0.0;1838.2656
930.845;0.92912793;0.5811544;1909.721;-6714.856;-4805.135;-614.4932;0.0;0.0;1838.2656
930.85;0.92919564;0.5785792;1909.995;-6715.6157;-4805.6206;-629.24347;0.0;0.0;1838.2656
930.855;0.92924124;0.575699;1910.1816;-6716.7524;-4806.571;-645.5005;0.0;0.0;1838.2656
930.86;0.92926306;0.5725397;1910.352;-6718.159;-4807.807;-663.26416;0.0;0.0;1838.2656
930.865;0.92930573;0.56906796;1910.6633;-6720.0093;-4809.3457;-683.03235;0.0;0.0;1838.2656
930.87;0.92939866;0.56551474;1911.1654;-6721.708;-4810.5425;-703.63196;0.0;0.0;1838.2656
930.875;0.92952484;0.56146187;1911.6697;-6724.107;-4812.4375;-726.991;0.0;0.0;1838.2656
930.88;0.9296035;0.55717194;1911.8324;-6726.9253;-4815.093;-750.97473;0.0;0.0;1838.2656
930.885;0.9295496;0.5534397;1911.348;-6729.4443;-4818.096;-770.5887;0.0;0.0;1838.2656
930.89;0.9293079;0.55178154;1910.0513;-6729.946;-4819.8945;-777.1395;0.0;0.0;1838.2656
930.895;0.9288655;0.5525847;1907.9885;-6728.799;-4820.8105;-768.5846;0.0;0.0;1838.2656
930.9;0.92827463;0.55659163;1905.5076;-6725.0005;-4819.493;-741.5252;0.0;0.0;1838.2656
930.905;0.9276666;0.56364197;1903.2239;-6719.4204;-4816.1963;-698.07684;0.0;0.0;1838.2656
930.91;0.92721087;0.5730129;1901.7646;-6712.428;-4810.6636;-643.47955;0.0;0.0;1838.2656
930.915;0.9270242;0.5835186;1901.4138;-6704.9697;-4803.5557;-584.8411;0.0;0.0;1838.2656
930.92;0.9270981;0.59372663;1901.9502;-6698.1914;-4796.241;-529.61847;0.0;0.0;1838.2656
930.925;0.9273187;0.6031711;1902.9243;-6692.1045;-4789.18;-479.48257;0.0;0.0;1838.2656
930.93;0.92758834;0.6113947;1904.0358;-6686.8984;-4782.863;-436.354;0.0;0.0;1838.2656
930.935;0.9278729;0.61806244;1905.2506;-6683.2163;-4777.966;-402.0123;0.0;0.0;1838.2656
930.94;0.92819494;0.6231129;1906.6421;-6680.8276;-4774.1855;-376.94305;0.0;0.0;1838.2656
930.945;0.9285554;0.6263239;1908.06;-6679.963;-4771.903;-362.07108;0.0;0.0;1838.2656
930.95;0.9288626;0.6284226;1909.0276;-6679.617;-4770.59;-352.4322;0.0;0.0;1838.2656
930.955;0.928975;0.6303291;1909.0209;-6679.1816;-4770.1606;-341.90482;0.0;0.0;1838.2656
930.96;0.9288015;0.6328558;1907.877;-6678.119;-4770.242;-325.68274;0.0;0.0;1838.2656
930.965;0.9283827;0.63748056;1905.9363;-6675.336;-4769.3994;-296.29684;0.0;0.0;1838.2656
930.97;0.92786163;0.6449955;1903.8428;-6669.8584;-4766.0156;-250.66617;0.0;0.0;1838.2656
930.975;0.9274086;0.6545291;1902.2764;-6662.93;-4760.654;-194.95789;0.0;0.0;1838.2656
930.98;0.9271688;0.6651819;1901.6743;-6655.3447;-4753.6704;-135.00581;0.0;0.0;1838.2656
930.985;0.927188;0.67550343;1902.079;-6648.5654;-4746.4863;-78.89385;0.0;0.0;1838.2656
930.99;0.92742413;0.6846668;1903.2657;-6642.7656;-4739.5;-30.733023;0.0;0.0;1838.2656
930.995;0.9277999;0.6918459;1904.8765;-6638.775;-4733.8984;5.6366253;0.0;0.0;1838.2656
931.0;0.92821664;0.69716007;1906.5164;-6635.966;-4729.449;31.66346;0.0;0.0;1838.2656
931.005;0.9285879;0.70022887;1907.916;-6634.917;-4727.001;45.787952;0.0;0.0;1838.2656
931.01;0.9288795;0.70188934;1909.0271;-6634.619;-4725.592;52.723072;0.0;0.0;1838.2656
931.015;0.9291131;0.70214206;1909.939;-6635.5156;-4725.5767;52.292862;0.0;0.0;1838.2656
931.02;0.9293153;0.7013418;1910.7908;-6636.9375;-4726.1465;46.17612;0.0;0.0;1838.2656
931.025;0.9295273;0.699195;1911.7266;-6639.4346;-4727.708;32.465385;0.0;0.0;1838.2656
931.03;0.9297752;0.6957502;1912.8416;-6643.016;-4730.175;11.237765;0.0;0.0;1838.2656
931.035;0.9300718;0.69047534;1914.1152;-6648.036;-4733.921;-20.399338;0.0;0.0;1838.2656
931.04;0.93038005;0.6835056;1915.2905;-6654.5522;-4739.2617;-61.186684;0.0;0.0;1838.2656
931.045;0.9306;0.67578256;1915.8877;-6661.4736;-4745.586;-104.971985;0.0;0.0;1838.2656
931.05;0.93059844;0.66780674;1915.3976;-6668.343;-4752.9453;-147.97665;0.0;0.0;1838.2656
931.055;0.9302789;0.66197723;1913.6353;-6672.8984;-4759.263;-176.60065;0.0;0.0;1838.2656
931.06;0.92967767;0.6590501;1910.9028;-6674.784;-4763.8813;-187.27814;0.0;0.0;1838.2656
931.065;0.9289221;0.65980065;1907.7717;-6673.558;-4765.786;-176.87694;0.0;0.0;1838.2656
931.07;0.9281655;0.6641809;1904.8579;-6669.4775;-4764.6196;-146.8933;0.0;0.0;1838.2656
931.075;0.9275498;0.6711156;1902.7114;-6663.5767;-4760.865;-104.356926;0.0;0.0;1838.2656
931.08;0.9271953;0.67972535;1901.8033;-6656.3984;-4754.595;-55.05961;0.0;0.0;1838.2656
931.085;0.92719823;0.68791527;1902.4061;-6649.8433;-4747.437;-11.099352;0.0;0.0;1838.2656
931.09;0.9275703;0.69393885;1904.4014;-6645.3076;-4740.9062;18.128916;0.0;0.0;1838.2656
931.095;0.9282145;0.69673383;1907.2166;-6643.381;-4736.164;27.912561;0.0;0.0;1838.2656
931.1;0.9289343;0.69575095;1910.0171;-6644.5977;-4734.5806;16.890924;0.0;0.0;1838.2656
931.105;0.9295252;0.69194824;1912.0657;-6647.5254;-4735.46;-8.177326;0.0;0.0;1838.2656
931.11;0.9298532;0.686438;1912.9714;-6651.6084;-4738.6367;-40.37645;0.0;0.0;1838.2656
931.115;0.9298878;0.6807151;1912.7706;-6655.6904;-4742.92;-71.53595;0.0;0.0;1838.2656
931.12;0.9296978;0.6760403;1911.8239;-6658.707;-4746.8833;-95.4229;0.0;0.0;1838.2656
931.125;0.9293993;0.6729343;1910.6375;-6660.3027;-4749.665;-110.179054;0.0;0.0;1838.2656
931.13;0.9291208;0.670956;1909.6567;-6661.282;-4751.6255;-119.1272;0.0;0.0;1838.2656
931.135;0.92893916;0.6700498;1909.1123;-6661.416;-4752.3037;-123.036;0.0;0.0;1838.2656
