time;temperature;pressure;kinetic_energy;potential_energy;total_energy;virial;msd;diffusion;volume
1640.005;0.6439986;0.05032815;1322.3821;-6928.134;-5605.752;-2367.2146;0.0;0.0;1838.2656
1640.01;0.6443138;0.05258408;1323.6697;-6926.7017;-5603.032;-2357.3489;0.0;0.0;1838.2656
1640.015;0.64463145;0.053005874;1324.9446;-6926.3984;-5601.454;-2357.5725;0.0;0.0;1838.2656
1640.02;0.6449301;0.05158627;1326.1375;-6927.3633;-5601.2256;-2367.787;0.0;0.0;1838.2656
1640.025;0.6451998;0.048535183;1327.2122;-6929.334;-5602.122;-2386.7627;0.0;0.0;1838.2656
1640.03;0.64543545;0.044065975;1328.1582;-6932.177;-5604.0186;-2413.3015;0.0;0.0;1838.2656
1640.035;0.64563656;0.038319845;1328.9471;-6935.8984;-5606.951;-2446.568;0.0;0.0;1838.2656
1640.04;0.6457884;0.031574752;1329.4861;-6940.2744;-5610.788;-2484.8438;0.0;0.0;1838.2656
1640.045;0.6458604;0.024466563;1329.6604;-6944.7197;-5615.0596;-2524.3926;0.0;0.0;1838.2656
1640.05;0.64583224;0.017625004;1329.4258;-6948.6714;-5619.2456;-2561.6533;0.0;0.0;1838.2656
1640.055;0.6457097;0.011194955;1328.8418;-6952.3135;-5623.4717;-2595.9458;0.0;0.0;1838.2656
1640.06;0.6455207;0.005950637;1328.036;-6954.7363;-5626.7;-2623.2554;0.0;0.0;1838.2656
1640.065;0.6453008;0.0014912375;1327.1575;-6956.949;-5629.792;-2646.091;0.0;0.0;1838.2656
1640.07;0.64508563;-0.0017795712;1326.3307;-6958.168;-5631.8374;-2662.4753;0.0;0.0;1838.2656
1640.075;0.6448978;-0.003943233;1325.6423;-6958.5737;-5632.9316;-2673.0308;0.0;0.0;1838.2656
1640.08;0.6447561;-0.0054011913;1325.1573;-6958.552;-5633.3945;-2680.101;0.0;0.0;1838.2656
1640.085;0.6446726;-0.006504075;1324.9417;-6958.504;-5633.5625;-2685.752;0.0;0.0;1838.2656
1640.09;0.6446653;-0.0074529713;1325.0464;-6958.3613;-5633.315;-2691.1943;0.0;0.0;1838.2656
1640.095;0.64473796;-0.008457033;1325.4736;-6958.233;-5632.7593;-2697.5862;0.0;0.0;1838.2656
1640.1;0.64488274;-0.010233797;1326.147;-6958.9053;-5632.7583;-2708.7312;0.0;0.0;1838.2656
1640.105;0.64506644;-0.012994619;1326.9081;-6960.6123;-5633.704;-2725.4788;0.0;0.0;1838.2656
1640.11;0.64524305;-0.016542645;1327.5771;-6963.0977;-5635.5205;-2746.3835;0.0;0.0;1838.2656
1640.115;0.64537424;-0.020641685;1328.0228;-6965.9863;-5637.9634;-2769.8804;0.0;0.0;1838.2656
1640.12;0.64543986;-0.024986872;1328.2104;-6969.12;-5640.9097;-2794.2185;0.0;0.0;1838.2656
1640.125;0.6454475;-0.029131709;1328.1918;-6972.1436;-5643.9517;-2817.039;0.0;0.0;1838.2656
1640.13;0.64541703;-0.033145044;1328.0454;-6975.2188;-5647.1733;-2838.879;0.0;0.0;1838.2656
1640.135;0.6453669;-0.036760345;1327.8545;-6978.1123;-5650.258;-2858.4348;0.0;0.0;1838.2656
1640.14;0.6453174;-0.039909784;1327.6814;-6980.6436;-5652.962;-2875.457;0.0;0.0;1838.2656
1640.145;0.6452771;-0.04277404;1327.5471;-6983.1035;-5655.5566;-2890.9844;0.0;0.0;1838.2656
1640.15;0.64524704;-0.04509785;1327.4651;-6985.0967;-5657.632;-2903.6357;0.0;0.0;1838.2656
1640.155;0.6452319;-0.04744196;1327.4313;-6987.301;-5659.8696;-2916.4954;0.0;0.0;1838.2656
1640.16;0.6452238;-0.049705595;1327.4246;-6989.6826;-5662.258;-2928.9653;0.0;0.0;1838.2656
1640.165;0.64522135;-0.05170876;1327.448;-6991.7505;-5664.3027;-2940.0593;0.0;0.0;1838.2656
1640.17;0.6452268;-0.053908113;1327.4924;-6994.169;-5666.677;-2952.277;0.0;0.0;1838.2656
1640.175;0.64523363;-0.056004502;1327.5383;-6996.365;-5668.827;-2963.9302;0.0;0.0;1838.2656
1640.18;0.6452389;-0.058106616;1327.5859;-6998.574;-5670.9883;-2975.6182;0.0;0.0;1838.2656
1640.185;0.6452459;-0.06020035;1327.6249;-7000.744;-5673.119;-2987.2424;0.0;0.0;1838.2656
1640.19;0.6452464;-0.062374562;1327.6472;-7002.8823;-5675.2354;-2999.2773;0.0;0.0;1838.2656
1640.195;0.6452442;-0.06456997;1327.6384;-7005.198;-5677.5596;-3011.3672;0.0;0.0;1838.2656
1640.2;0.6452287;-0.06674703;1327.5652;-7007.3833;-5679.8184;-3023.2268;0.0;0.0;1838.2656
1640.205;0.6451935;-0.06885188;1327.3876;-7009.5684;-5682.1807;-3034.4792;0.0;0.0;1838.2656
1640.21;0.64512604;-0.07044008;1327.0659;-7011.267;-5684.201;-3042.5945;0.0;0.0;1838.2656
1640.215;0.64502084;-0.07176525;1326.5769;-7012.9824;-5686.4053;-3048.9246;0.0;0.0;1838.2656
1640.22;0.6448746;-0.07206807;1325.9294;-7013.5586;-5687.629;-3049.2996;0.0;0.0;1838.2656
1640.225;0.64469606;-0.07152801;1325.1537;-7013.4653;-5688.3115;-3044.7698;0.0;0.0;1838.2656
1640.23;0.6444925;-0.06985656;1324.2933;-7012.4844;-5688.191;-3033.8313;0.0;0.0;1838.2656
1640.235;0.6442786;-0.06713341;1323.402;-7010.799;-5687.397;-3017.031;0.0;0.0;1838.2656
1640.24;0.6440649;-0.06322654;1322.5259;-7008.002;-5685.476;-2993.7334;0.0;0.0;1838.2656
1640.245;0.64386386;-0.058288127;1321.721;-7004.4565;-5682.7354;-2964.8892;0.0;0.0;1838.2656
1640.25;0.6436903;-0.05242542;1321.051;-7000.241;-5679.1904;-2931.2175;0.0;0.0;1838.2656
1640.255;0.6435586;-0.046086106;1320.5566;-6995.782;-5675.2256;-2895.2688;0.0;0.0;1838.2656
1640.26;0.6434719;-0.039168123;1320.2554;-6990.811;-5670.5557;-2856.515;0.0;0.0;1838.2656
1640.265;0.64343435;-0.032039143;1320.1354;-6985.629;-5665.4937;-2816.9602;0.0;0.0;1838.2656
1640.27;0.643434;-0.024973078;1320.1537;-6980.4434;-5660.2896;-2778.0288;0.0;0.0;1838.2656
1640.275;0.6434643;-0.018263102;1320.2969;-6975.658;-5655.3613;-2741.311;0.0;0.0;1838.2656
1640.28;0.643528;-0.012019059;1320.6068;-6971.216;-5650.609;-2707.4963;0.0;0.0;1838.2656
1640.285;0.64364535;-0.0066524763;1321.1835;-6967.463;-5646.2793;-2679.054;0.0;0.0;1838.2656
1640.29;0.6438456;-0.0024063715;1322.1504;-6964.657;-5642.507;-2657.5715;0.0;0.0;1838.2656
1640.295;0.6441578;0.000251911;1323.6191;-6962.884;-5639.2646;-2645.849;0.0;0.0;1838.2656
1640.3;0.64459413;0.00064911775;1325.5227;-6963.076;-5637.5537;-2647.4656;0.0;0.0;1838.2656
1640.305;0.6450912;-0.0016430231;1327.4814;-6965.535;-5638.0537;-2664.024;0.0;0.0;1838.2656
1640.31;0.6455144;-0.006063624;1328.9377;-6969.552;-5640.6143;-2691.3152;0.0;0.0;1838.2656
1640.315;0.6457413;-0.011360262;1329.5488;-6974.005;-5644.456;-2721.747;0.0;0.0;1838.2656
1640.32;0.64575315;-0.016803999;1329.3696;-6978.3745;-5649.005;-2751.41;0.0;0.0;1838.2656
1640.325;0.64561105;-0.02132177;1328.6841;-6981.6816;-5652.9976;-2774.9534;0.0;0.0;1838.2656
1640.33;0.64539325;-0.024708895;1327.7693;-6984.332;-5656.5625;-2791.8032;0.0;0.0;1838.2656
1640.335;0.6451512;-0.026891906;1326.7682;-6986.0396;-5659.2715;-2801.8398;0.0;0.0;1838.2656
1640.34;0.64489746;-0.027690953;1325.7201;-6986.8564;-5661.136;-2804.1501;0.0;0.0;1838.2656
1640.345;0.64463645;-0.026727933;1324.6316;-6986.232;-5661.6006;-2796.6624;0.0;0.0;1838.2656
1640.35;0.64436626;-0.024380164;1323.4907;-6984.6445;-5661.154;-2781.433;0.0;0.0;1838.2656
1640.355;0.6440826;-0.020447144;1322.2908;-6981.961;-5659.67;-2757.3435;0.0;0.0;1838.2656
1640.36;0.6437875;-0.014952528;1321.0453;-6978.3994;-5657.354;-2724.5508;0.0;0.0;1838.2656
1640.365;0.6434876;-0.0077122706;1319.7922;-6973.1885;-5653.3965;-2682.116;0.0;0.0;1838.2656
1640.37;0.6431977;0.0010932542;1318.6337;-6966.8164;-5648.1826;-2631.2383;0.0;0.0;1838.2656
1640.375;0.6429562;0.011040972;1317.7388;-6959.688;-5641.949;-2574.5889;0.0;0.0;1838.2656
1640.38;0.642808;0.021440096;1317.3142;-6952.474;-5635.16;-2516.3906;0.0;0.0;1838.2656
1640.385;0.6428054;0.03185962;1317.531;-6945.098;-5627.5674;-2459.3625;0.0;0.0;1838.2656
1640.39;0.64297086;0.041274894;1318.4287;-6938.7163;-5620.2876;-2409.2349;0.0;0.0;1838.2656
1640.395;0.64329004;0.0488723;1319.8855;-6933.512;-5613.627;-2370.2502;0.0;0.0;1838.2656
1640.4;0.6437102;0.054162398;1321.6825;-6930.085;-5608.4023;-2344.6704;0.0;0.0;1838.2656
1640.405;0.64417875;0.05671018;1323.6315;-6928.5757;-5604.9443;-2334.5178;0.0;0.0;1838.2656
1640.41;0.6446588;0.056573138;1325.596;-6929.0684;-5603.4727;-2339.2026;0.0;0.0;1838.2656
1640.415;0.64512134;0.053564534;1327.4402;-6931.524;-5604.084;-2359.483;0.0;0.0;1838.2656
1640.42;0.6455276;0.048280247;1328.9989;-6935.5723;-5606.573;-2391.742;0.0;0.0;1838.2656
1640.425;0.64583915;0.04112704;1330.1233;-6940.8154;-5610.6924;-2433.4392;0.0;0.0;1838.2656
1640.43;0.6460269;0.032602224;1330.7324;-6947.0347;-5616.3022;-2481.6702;0.0;0.0;1838.2656
1640.435;0.64608747;0.02370554;1330.8411;-6953.22;-5622.379;-2530.951;0.0;0.0;1838.2656
1640.44;0.64603597;0.015230297;1330.5254;-6958.5835;-5628.058;-2577.0588;0.0;0.0;1838.2656
1640.445;0.64589816;0.006950776;1329.8967;-6963.942;-5634.045;-2621.4614;0.0;0.0;1838.2656
1640.45;0.64570296;2.1500655e-05;1329.0732;-6967.895;-5638.822;-2658.0278;0.0;0.0;1838.2656
1640.455;0.64548206;-0.005972389;1328.2007;-6971.255;-5643.054;-2689.338;0.0;0.0;1838.2656
1640.46;0.6452746;-0.01098018;1327.4421;-6973.778;-5646.336;-2715.4377;0.0;0.0;1838.2656
1640.465;0.64511985;-0.015079728;1326.9497;-6975.8145;-5648.8647;-2737.061;0.0;0.0;1838.2656
1640.47;0.64504904;-0.01903379;1326.8146;-6977.9277;-5651.1133;-2758.5967;0.0;0.0;1838.2656
1640.475;0.6450678;-0.022895139;1327.0214;-6979.965;-5652.9434;-2780.3047;0.0;0.0;1838.2656
1640.48;0.64515847;-0.02726326;1327.4785;-6982.578;-5655.0996;-2805.3083;0.0;0.0;1838.2656
1640.485;0.64529085;-0.03213519;1328.0576;-6985.71;-5657.6523;-2833.3342;0.0;0.0;1838.2656
1640.49;0.6454328;-0.03783551;1328.6448;-6989.6934;-5661.049;-2865.9446;0.0;0.0;1838.2656
1640.495;0.6455638;-0.043825768;1329.1733;-6993.7896;-5664.616;-2900.0369;0.0;0.0;1838.2656
1640.5;0.64567363;-0.050322592;1329.6062;-6998.35;-5668.744;-2936.7312;0.0;0.0;1838.2656
1640.505;0.6457539;-0.057183545;1329.9006;-7003.343;-5673.4424;-2975.157;0.0;0.0;1838.2656
1640.51;0.64579093;-0.06392196;1329.9758;-7008.2344;-5678.259;-3012.4683;0.0;0.0;1838.2656
1640.515;0.6457592;-0.07043955;1329.7302;-7013.0293;-5683.299;-3047.9202;0.0;0.0;1838.2656
1640.52;0.6456371;-0.07588484;1329.1042;-7017.0283;-5687.924;-3076.698;0.0;0.0;1838.2656
1640.525;0.64542276;-0.08000555;1328.1042;-7019.8975;-5691.793;-3097.4229;0.0;0.0;1838.2656
1640.53;0.6451242;-0.082770675;1326.7971;-7022.02;-5695.2227;-3110.0576;0.0;0.0;1838.2656
1640.535;0.6447691;-0.08339404;1325.2993;-7022.4883;-5697.189;-3110.4998;0.0;0.0;1838.2656
1640.54;0.6443882;-0.08187359;1323.7395;-7021.4385;-5697.699;-3098.995;0.0;0.0;1838.2656
1640.545;0.6440128;-0.07821981;1322.2542;-7018.676;-5696.422;-3075.8748;0.0;0.0;1838.2656
1640.55;0.6436777;-0.07288411;1320.96;-7014.8916;-5693.9316;-3043.861;0.0;0.0;1838.2656
1640.555;0.6434035;-0.066029795;1319.9574;-7009.9194;-5689.962;-3004.0557;0.0;0.0;1838.2656
1640.56;0.6432166;-0.058303013;1319.342;-7004.326;-5684.9844;-2960.2134;0.0;0.0;1838.2656
1640.565;0.64313626;-0.050272163;1319.1934;-6998.6143;-5679.421;-2915.6274;0.0;0.0;1838.2656
1640.57;0.6431785;-0.042520475;1319.5454;-6993.243;-5673.6978;-2873.5825;0.0;0.0;1838.2656
1640.575;0.64333975;-0.03559065;1320.3613;-6988.282;-5667.921;-2836.9978;0.0;0.0;1838.2656
1640.58;0.64360034;-0.0305181;1321.5281;-6985.0234;-5663.495;-2811.3572;0.0;0.0;1838.2656
1640.585;0.6439209;-0.02740469;1322.8793;-6983.5303;-5660.651;-2796.89;0.0;0.0;1838.2656
1640.59;0.64426035;-0.025875783;1324.248;-6982.647;-5658.399;-2791.1958;0.0;0.0;1838.2656
1640.595;0.6445795;-0.026181653;1325.5212;-6983.099;-5657.578;-2795.429;0.0;0.0;1838.2656
1640.6;0.64486706;-0.028314974;1326.6583;-6984.965;-5658.3066;-2809.468;0.0;0.0;1838.2656
1640.605;0.6451167;-0.031759154;1327.6433;-6987.5483;-5659.9053;-2830.432;0.0;0.0;1838.2656
1640.61;0.64532727;-0.036547393;1328.4519;-6991.1685;-5662.717;-2858.4553;0.0;0.0;1838.2656
1640.615;0.6454884;-0.042273745;1329.053;-6995.5176;-5666.465;-2891.237;0.0;0.0;1838.2656
1640.62;0.6455947;-0.04853541;1329.4028;-7000.167;-5670.764;-2926.4685;0.0;0.0;1838.2656
1640.625;0.64563197;-0.054629177;1329.4487;-7004.4424;-5674.9937;-2960.1663;0.0;0.0;1838.2656
1640.63;0.6455911;-0.060512293;1329.168;-7008.657;-5679.4893;-2992.0488;0.0;0.0;1838.2656
1640.635;0.6454725;-0.065345556;1328.5812;-7011.8174;-5683.2363;-3017.5298;0.0;0.0;1838.2656
1640.64;0.64528835;-0.06933051;1327.7498;-7014.6943;-5686.9443;-3037.8433;0.0;0.0;1838.2656
1640.645;0.64505714;-0.07167183;1326.7498;-7016.234;-5689.4844;-3048.7551;0.0;0.0;1838.2656
1640.65;0.64479744;-0.07245819;1325.6552;-7016.618;-5690.963;-3050.9026;0.0;0.0;1838.2656
1640.655;0.6445261;-0.07166629;1324.5415;-7016.1514;-5691.61;-3044.308;0.0;0.0;1838.2656
1640.66;0.64426416;-0.06942067;1323.5002;-7014.947;-5691.4463;-3029.8413;0.0;0.0;1838.2656
1640.665;0.6440355;-0.06592748;1322.6514;-7013.069;-5690.4175;-3008.8794;0.0;0.0;1838.2656
1640.67;0.6438721;-0.060959242;1322.0835;-7009.8555;-5687.772;-2980.3447;0.0;0.0;1838.2656
1640.675;0.64378184;-0.055463485;1321.8076;-7006.4863;-5684.6787;-2949.485;0.0;0.0;1838.2656
1640.68;0.6437573;-0.049894758;1321.7831;-7003.357;-5681.5737;-2918.7256;0.0;0.0;1838.2656
1640.685;0.64378417;-0.04444587;1321.9316;-7000.6035;-5678.672;-2888.9731;0.0;0.0;1838.2656
1640.69;0.6438394;-0.039246127;1322.176;-6998.004;-5675.828;-2860.7864;0.0;0.0;1838.2656
1640.695;0.6439106;-0.034337662;1322.5;-6995.4937;-5672.9937;-2834.3652;0.0;0.0;1838.2656
1640.7;0.6440039;-0.03014122;1322.9135;-6993.8247;-5670.911;-2812.0496;0.0;0.0;1838.2656
1640.705;0.64411837;-0.026892267;1323.4329;-6992.783;-5669.3506;-2795.1711;0.0;0.0;1838.2656
1640.71;0.6442602;-0.024322264;1324.0465;-6992.153;-5668.1064;-2782.2253;0.0;0.0;1838.2656
1640.715;0.64441514;-0.022508701;1324.6626;-6991.995;-5667.3325;-2773.456;0.0;0.0;1838.2656
1640.72;0.64455175;-0.021514447;1325.1545;-6992.1475;-5666.993;-2768.9568;0.0;0.0;1838.2656
1640.725;0.6446398;-0.021085825;1325.4192;-6992.84;-5667.421;-2767.1223;0.0;0.0;1838.2656
1640.73;0.64466447;-0.020845227;1325.4108;-6993.345;-5667.9346;-2765.7788;0.0;0.0;1838.2656
1640.735;0.64462155;-0.020420348;1325.1467;-6993.705;-5668.5586;-2762.9075;0.0;0.0;1838.2656
1640.74;0.64452875;-0.019664405;1324.7327;-6993.588;-5668.8555;-2757.9106;0.0;0.0;1838.2656
1640.745;0.6444203;-0.018518992;1324.3088;-6993.3965;-5669.088;-2750.746;0.0;0.0;1838.2656
1640.75;0.644329;-0.01681789;1323.9873;-6992.713;-5668.7256;-2740.722;0.0;0.0;1838.2656
1640.755;0.6442707;-0.014990969;1323.7871;-6992.203;-5668.416;-2730.2463;0.0;0.0;1838.2656
1640.76;0.6442321;-0.012505172;1323.6284;-6990.8164;-5667.188;-2716.2202;0.0;0.0;1838.2656
1640.765;0.6441879;-0.010006499;1323.4076;-6989.6406;-5666.233;-2701.999;0.0;0.0;1838.2656
1640.77;0.64411676;-0.0069487887;1323.0852;-6987.798;-5664.713;-2684.4915;0.0;0.0;1838.2656
1640.775;0.6440265;-0.00358655;1322.731;-6985.937;-5663.206;-2665.241;0.0;0.0;1838.2656
1640.78;0.643946;0.00019168883;1322.4431;-6983.638;-5661.1953;-2643.829;0.0;0.0;1838.2656
1640.785;0.6438949;0.0041289353;1322.3333;-6981.1875;-5658.8545;-2621.8962;0.0;0.0;1838.2656
1640.79;0.64390725;0.0077534467;1322.5022;-6979.1553;-5656.6533;-2602.2456;0.0;0.0;1838.2656
1640.795;0.6439944;0.010672731;1322.9978;-6977.7305;-5654.7324;-2587.1377;0.0;0.0;1838.2656
1640.8;0.6441624;0.012802643;1323.7805;-6976.628;-5652.8477;-2576.957;0.0;0.0;1838.2656
1640.805;0.64438;0.01360819;1324.7047;-6976.6274;-5651.923;-2574.363;0.0;0.0;1838.2656
1640.81;0.6446052;0.013303732;1325.6011;-6977.084;-5651.483;-2577.8347;0.0;0.0;1838.2656
1640.815;0.6447995;0.011455987;1326.3348;-6978.9697;-5652.635;-2589.4922;0.0;0.0;1838.2656
1640.82;0.6449412;0.008647477;1326.8499;-6981.33;-5654.4805;-2606.0107;0.0;0.0;1838.2656
1640.825;0.645029;0.0052739764;1327.1791;-6983.7847;-5656.6055;-2625.2732;0.0;0.0;1838.2656
1640.83;0.6450828;0.001400893;1327.3875;-6986.3394;-5658.952;-2647.0493;0.0;0.0;1838.2656
1640.835;0.6451135;-0.002990706;1327.5272;-6989.3555;-5661.828;-2671.5476;0.0;0.0;1838.2656
1640.84;0.6451361;-0.007593401;1327.6277;-6992.2017;-5664.574;-2697.1313;0.0;0.0;1838.2656
1640.845;0.6451486;-0.012430572;1327.699;-6995.0547;-5667.3555;-2723.95;0.0;0.0;1838.2656
1640.85;0.64515907;-0.017627804;1327.7733;-6998.443;-5670.6694;-2752.7605;0.0;0.0;1838.2656
1640.855;0.64517576;-0.023025429;1327.8837;-7001.742;-5673.8584;-2782.7478;0.0;0.0;1838.2656
1640.86;0.6452052;-0.028473267;1328.0599;-7004.925;-5676.8647;-2813.144;0.0;0.0;1838.2656
1640.865;0.6452537;-0.034379326;1328.2891;-7008.7627;-5680.4736;-2846.173;0.0;0.0;1838.2656
1640.87;0.645305;-0.040360324;1328.4883;-7012.611;-5684.1226;-2879.5557;0.0;0.0;1838.2656
1640.875;0.6453315;-0.04636218;1328.522;-7016.521;-5687.999;-2912.722;0.0;0.0;1838.2656
1640.88;0.6452952;-0.052002456;1328.2283;-7020.3623;-5692.134;-2943.2395;0.0;0.0;1838.2656
1640.885;0.6451582;-0.05651911;1327.4961;-7023.1455;-5695.6494;-2966.6836;0.0;0.0;1838.2656
1640.89;0.64490974;-0.059542615;1326.3103;-7024.9863;-5698.676;-2980.986;0.0;0.0;1838.2656
1640.895;0.64456;-0.06047609;1324.7537;-7025.093;-5700.339;-2983.0208;0.0;0.0;1838.2656
1640.9;0.6441431;-0.05901565;1322.9946;-7023.589;-5700.594;-2971.4485;0.0;0.0;1838.2656
1640.905;0.6437092;-0.055056177;1321.2432;-7020.207;-5698.964;-2946.1099;0.0;0.0;1838.2656
1640.91;0.64330924;-0.048834108;1319.6909;-7015.173;-5695.482;-2908.6921;0.0;0.0;1838.2656
1640.915;0.64298314;-0.040645964;1318.5;-7008.709;-5690.209;-2861.1543;0.0;0.0;1838.2656
1640.92;0.6427658;-0.031505954;1317.771;-7001.908;-5684.137;-2809.291;0.0;0.0;1838.2656
1640.925;0.64266807;-0.02189496;1317.5476;-6995.1904;-5677.6426;-2755.8416;0.0;0.0;1838.2656
1640.93;0.642696;-0.0123620825;1317.834;-6988.701;-5670.867;-2703.8423;0.0;0.0;1838.2656
1640.935;0.64284146;-0.0035679413;1318.5579;-6982.7734;-5664.216;-2656.7922;0.0;0.0;1838.2656
1640.94;0.6430735;0.004211574;1319.5839;-6977.616;-5658.032;-2615.9417;0.0;0.0;1838.2656
1640.945;0.6433538;0.010295889;1320.7345;-6973.9014;-5653.167;-2584.6892;0.0;0.0;1838.2656
1640.95;0.64363384;0.014865472;1321.8237;-6971.3813;-5649.5576;-2561.6675;0.0;0.0;1838.2656
1640.955;0.64387393;0.018157875;1322.7048;-6969.6807;-5646.9756;-2545.2727;0.0;0.0;1838.2656
1640.96;0.6440476;0.020497283;1323.3179;-6968.4297;-5645.112;-2533.5974;0.0;0.0;1838.2656
1640.965;0.6441582;0.022250852;1323.6929;-6967.438;-5643.745;-2524.6768;0.0;0.0;1838.2656
1640.97;0.644221;0.023377957;1323.9165;-6966.6865;-5642.77;-2518.9082;0.0;0.0;1838.2656
1640.975;0.64426315;0.023813564;1324.0887;-6966.726;-5642.637;-2516.8506;0.0;0.0;1838.2656
1640.98;0.6443068;0.02411604;1324.306;-6966.4893;-5642.183;-2515.617;0.0;0.0;1838.2656
1640.985;0.64437526;0.023765745;1324.6455;-6966.632;-5641.9863;-2518.2278;0.0;0.0;1838.2656
1640.99;0.6444808;0.022811916;1325.1621;-6967.1094;-5641.9473;-2524.5212;0.0;0.0;1838.2656
1640.995;0.64463586;0.020830512;1325.8837;-6968.4253;-5642.5415;-2536.8914;0.0;0.0;1838.2656
1641.0;0.6448378;0.017476149;1326.7847;-6970.96;-5644.1753;-2557.192;0.0;0.0;1838.2656
1641.005;0.64507085;0.012890939;1327.7572;-6974.2793;-5646.522;-2584.4236;0.0;0.0;1838.2656
1641.01;0.6452941;0.0073482054;1328.6167;-6978.037;-5649.4204;-2616.7095;0.0;0.0;1838.2656
1641.015;0.6454581;0.0007596219;1329.1729;-6982.637;-5653.4644;-2654.1565;0.0;0.0;1838.2656
1641.02;0.64552504;-0.0060561653;1329.3099;-6987.381;-5658.071;-2692.0183;0.0;0.0;1838.2656
1641.025;0.64548516;-0.012588731;1329.026;-6991.657;-5662.6313;-2727.4763;0.0;0.0;1838.2656
1641.03;0.6453522;-0.018675523;1328.4083;-6995.827;-5667.419;-2759.8083;0.0;0.0;1838.2656
1641.035;0.64515823;-0.023570647;1327.5714;-6998.9346;-5671.3633;-2785.1301;0.0;0.0;1838.2656
1641.04;0.6449261;-0.027411673;1326.5978;-7001.339;-5674.741;-2804.3655;0.0;0.0;1838.2656
1641.045;0.6446717;-0.029463964;1325.5299;-7002.1924;-5676.6626;-2813.5476;0.0;0.0;1838.2656
1641.05;0.64439994;-0.030015597;1324.388;-7001.935;-5677.547;-2814.306;0.0;0.0;1838.2656
1641.055;0.6441166;-0.02926682;1323.2075;-7000.8525;-5677.645;-2807.8157;0.0;0.0;1838.2656
1641.06;0.6438342;-0.027012978;1322.0563;-6998.764;-5676.708;-2793.0837;0.0;0.0;1838.2656
1641.065;0.64357495;-0.023335272;1321.0425;-6995.425;-5674.3823;-2770.7742;0.0;0.0;1838.2656
1641.07;0.6433692;-0.018408941;1320.2915;-6991.0796;-5670.788;-2742.1045;0.0;0.0;1838.2656
1641.075;0.6432471;-0.013239152;1319.9244;-6986.722;-5666.798;-2712.86;0.0;0.0;1838.2656
1641.08;0.6432328;-0.00802339;1320.019;-6982.415;-5662.396;-2684.2854;0.0;0.0;1838.2656
1641.085;0.6433352;-0.0035621978;1320.5828;-6978.7515;-5658.169;-2660.8103;0.0;0.0;1838.2656
1641.09;0.6435419;-0.00020974637;1321.5137;-6975.7173;-5654.2036;-2644.184;0.0;0.0;1838.2656
