time;temperature;pressure;kinetic_energy;potential_energy;total_energy;virial;msd;diffusion;volume
1350.005;0.76136404;0.22928227;1565.5604;-6867.961;-5302.4004;-1866.6757;0.0;0.0;1838.2656
1350.01;0.76130414;0.22904801;1565.3228;-6869.616;-5304.2935;-1867.4922;0.0;0.0;1838.2656
1350.015;0.76123625;0.22966194;1564.9274;-6870.427;-5305.4995;-1863.3158;0.0;0.0;1838.2656
1350.02;0.7610886;0.23120262;1564.1589;-6870.4043;-5306.245;-1853.2825;0.0;0.0;1838.2656
1350.025;0.7608433;0.23392415;1563.0967;-6869.5264;-5306.4297;-1836.1492;0.0;0.0;1838.2656
1350.03;0.76057327;0.23783416;1562.1151;-6867.7227;-5305.6074;-1812.6232;0.0;0.0;1838.2656
1350.035;0.7603855;0.24238838;1561.6069;-6865.8394;-5304.2324;-1786.4912;0.0;0.0;1838.2656
1350.04;0.76034963;0.24719873;1561.6921;-6863.591;-5301.8984;-1760.1334;0.0;0.0;1838.2656
1350.045;0.76044106;0.25162628;1562.2294;-6861.7197;-5299.49;-1736.7909;0.0;0.0;1838.2656
1350.05;0.7606122;0.25504267;1563.0132;-6860.7354;-5297.722;-1719.518;0.0;0.0;1838.2656
1350.055;0.76081246;0.25727192;1563.852;-6860.679;-5296.827;-1708.9017;0.0;0.0;1838.2656
1350.06;0.7610007;0.2586345;1564.5808;-6861.2188;-5296.6377;-1702.8447;0.0;0.0;1838.2656
1350.065;0.7611422;0.25916433;1565.0774;-6862.086;-5297.009;-1700.9161;0.0;0.0;1838.2656
1350.07;0.76121503;0.25936124;1565.2822;-6863.171;-5297.8887;-1700.24;0.0;0.0;1838.2656
1350.075;0.7612171;0.259464;1565.2015;-6864.176;-5298.974;-1699.5118;0.0;0.0;1838.2656
1350.08;0.7611545;0.25968564;1564.8533;-6865.048;-5300.1943;-1697.593;0.0;0.0;1838.2656
1350.085;0.76102936;0.2606284;1564.2141;-6865.129;-5300.915;-1691.1156;0.0;0.0;1838.2656
1350.09;0.7608294;0.2623756;1563.2731;-6864.492;-5301.219;-1679.598;0.0;0.0;1838.2656
1350.095;0.76056546;0.2655353;1562.0892;-6862.43;-5300.341;-1659.8053;0.0;0.0;1838.2656
1350.1;0.76026124;0.2700343;1560.817;-6859.3467;-5298.53;-1632.4497;0.0;0.0;1838.2656
1350.105;0.75997216;0.27581587;1559.7174;-6855.003;-5295.2856;-1598.3662;0.0;0.0;1838.2656
1350.11;0.75977105;0.28231102;1559.0917;-6850.1436;-5291.052;-1561.2954;0.0;0.0;1838.2656
1350.115;0.7597272;0.28859645;1559.1737;-6845.3945;-5286.2207;-1526.7966;0.0;0.0;1838.2656
1350.12;0.7598738;0.29425266;1560.03;-6840.854;-5280.824;-1497.3164;0.0;0.0;1838.2656
1350.125;0.76019865;0.29713845;1561.5491;-6839.24;-5277.6914;-1484.44;0.0;0.0;1838.2656
1350.13;0.7606497;0.2980964;1563.4944;-6838.594;-5275.0996;-1483.0477;0.0;0.0;1838.2656
1350.135;0.76115835;0.29621807;1565.5632;-6840.0527;-5274.4893;-1497.5441;0.0;0.0;1838.2656
1350.14;0.7616421;0.29175228;1567.4238;-6843.502;-5276.078;-1525.8932;0.0;0.0;1838.2656
1350.145;0.7620221;0.28526068;1568.7372;-6848.412;-5279.675;-1564.3197;0.0;0.0;1838.2656
1350.15;0.76221895;0.27782094;1569.2507;-6853.7227;-5284.4717;-1606.3754;0.0;0.0;1838.2656
1350.155;0.7622018;0.27053317;1568.9058;-6858.8115;-5289.906;-1645.876;0.0;0.0;1838.2656
1350.16;0.7619882;0.26467365;1567.8352;-6862.473;-5294.6377;-1676.0491;0.0;0.0;1838.2656
1350.165;0.7616336;0.2605152;1566.279;-6865.0103;-5298.7314;-1695.8695;0.0;0.0;1838.2656
1350.17;0.76120126;0.25878972;1564.4634;-6865.4404;-5300.977;-1701.754;0.0;0.0;1838.2656
1350.175;0.76073915;0.25987238;1562.5952;-6863.6494;-5301.054;-1692.0471;0.0;0.0;1838.2656
1350.18;0.76030314;0.2630785;1560.9524;-6860.6133;-5299.661;-1671.0803;0.0;0.0;1838.2656
1350.185;0.75997525;0.26804677;1559.8647;-6856.455;-5296.5903;-1641.506;0.0;0.0;1838.2656
1350.19;0.7598291;0.27382302;1559.5989;-6852.1216;-5292.5225;-1609.1194;0.0;0.0;1838.2656
1350.195;0.75990194;0.27931327;1560.1311;-6848.3438;-5288.213;-1579.9062;0.0;0.0;1838.2656
1350.2;0.7601226;0.28406253;1561.057;-6845.255;-5284.1978;-1555.5668;0.0;0.0;1838.2656
1350.205;0.76035416;0.28757823;1561.8223;-6843.631;-5281.8086;-1537.7091;0.0;0.0;1838.2656
1350.21;0.760476;0.29064688;1562.0536;-6842.071;-5280.017;-1521.2487;0.0;0.0;1838.2656
1350.215;0.7604461;0.29420123;1561.7335;-6839.9155;-5278.182;-1501.007;0.0;0.0;1838.2656
1350.22;0.76031554;0.298192;1561.1658;-6837.32;-5276.1543;-1477.8632;0.0;0.0;1838.2656
1350.225;0.760186;0.30281663;1560.7717;-6834.059;-5273.287;-1451.5712;0.0;0.0;1838.2656
1350.23;0.76015615;0.30746755;1560.9062;-6830.884;-5269.9775;-1426.1914;0.0;0.0;1838.2656
1350.235;0.7602847;0.31130397;1561.669;-6828.549;-5266.88;-1406.5598;0.0;0.0;1838.2656
1350.24;0.7605418;0.31362382;1562.8242;-6827.692;-5264.8677;-1396.0767;0.0;0.0;1838.2656
1350.245;0.7608355;0.3145018;1564.0286;-6827.867;-5263.839;-1393.6437;0.0;0.0;1838.2656
1350.25;0.76109856;0.3136556;1565.0597;-6829.505;-5264.4453;-1400.3724;0.0;0.0;1838.2656
1350.255;0.7613011;0.31163162;1565.8418;-6831.958;-5266.116;-1413.0985;0.0;0.0;1838.2656
1350.26;0.76144147;0.3092174;1566.3667;-6834.2607;-5267.894;-1427.4623;0.0;0.0;1838.2656
1350.265;0.76151896;0.30643073;1566.6005;-6836.598;-5269.9976;-1443.2977;0.0;0.0;1838.2656
1350.27;0.7615193;0.30335894;1566.5012;-6839.334;-5272.833;-1460.0394;0.0;0.0;1838.2656
1350.275;0.76144105;0.30040538;1566.0925;-6841.87;-5275.7773;-1475.5104;0.0;0.0;1838.2656
1350.28;0.7613008;0.29829443;1565.4641;-6843.502;-5278.038;-1485.895;0.0;0.0;1838.2656
1350.285;0.7611285;0.29694685;1564.7488;-6844.425;-5279.676;-1491.896;0.0;0.0;1838.2656
1350.29;0.7609575;0.2961923;1564.0876;-6844.926;-5280.838;-1494.735;0.0;0.0;1838.2656
1350.295;0.7608219;0.29603204;1563.5793;-6844.807;-5281.2275;-1494.602;0.0;0.0;1838.2656
1350.3;0.7607319;0.2963508;1563.2751;-6843.995;-5280.7197;-1492.2358;0.0;0.0;1838.2656
1350.305;0.76069695;0.29660666;1563.17;-6843.336;-5280.166;-1490.6146;0.0;0.0;1838.2656
1350.31;0.760703;0.2965518;1563.2172;-6842.835;-5279.6177;-1491.0115;0.0;0.0;1838.2656
1350.315;0.7607384;0.2961571;1563.376;-6842.366;-5278.99;-1493.5057;0.0;0.0;1838.2656
1350.32;0.7607967;0.29526168;1563.624;-6842.382;-5278.758;-1498.94;0.0;0.0;1838.2656
1350.325;0.760873;0.29406732;1563.9777;-6842.216;-5278.2383;-1506.2338;0.0;0.0;1838.2656
1350.33;0.7609779;0.29200605;1564.4158;-6842.742;-5278.326;-1518.4774;0.0;0.0;1838.2656
1350.335;0.76108474;0.28919414;1564.8018;-6843.991;-5279.1895;-1534.7566;0.0;0.0;1838.2656
1350.34;0.76115185;0.28636047;1564.9388;-6845.0044;-5280.0654;-1550.6578;0.0;0.0;1838.2656
1350.345;0.7611283;0.28357905;1564.6646;-6845.899;-5281.2344;-1565.4482;0.0;0.0;1838.2656
1350.35;0.76099515;0.28159395;1563.9456;-6845.927;-5281.9814;-1574.9576;0.0;0.0;1838.2656
1350.355;0.76076597;0.2808464;1562.9209;-6844.929;-5282.0083;-1577.031;0.0;0.0;1838.2656
1350.36;0.7605051;0.28120038;1561.8896;-6843.058;-5281.1685;-1573.0164;0.0;0.0;1838.2656
1350.365;0.76029617;0.28264365;1561.196;-6840.366;-5279.17;-1563.6697;0.0;0.0;1838.2656
1350.37;0.7602191;0.28433383;1561.1514;-6837.904;-5276.7524;-1554.2594;0.0;0.0;1838.2656
1350.375;0.76033694;0.2853696;1561.9402;-6836.008;-5274.0674;-1550.1249;0.0;0.0;1838.2656
1350.38;0.76065755;0.2845943;1563.4753;-6835.993;-5272.5176;-1557.4708;0.0;0.0;1838.2656
1350.385;0.76110864;0.28201634;1565.3313;-6837.2065;-5271.875;-1575.3998;0.0;0.0;1838.2656
1350.39;0.76154375;0.27711028;1566.9283;-6840.437;-5273.509;-1605.6498;0.0;0.0;1838.2656
1350.395;0.7618399;0.27078915;1567.9153;-6844.6406;-5276.7256;-1642.4834;0.0;0.0;1838.2656
1350.4;0.7619721;0.26394668;1568.3007;-6849.3257;-5281.025;-1680.9889;0.0;0.0;1838.2656
1350.405;0.76198184;0.25688848;1568.2588;-6854.156;-5285.897;-1719.8298;0.0;0.0;1838.2656
1350.41;0.76190996;0.25070292;1567.8995;-6858.31;-5290.4106;-1753.2234;0.0;0.0;1838.2656
1350.415;0.7617676;0.24555275;1567.2609;-6861.2144;-5293.9536;-1780.3481;0.0;0.0;1838.2656
1350.42;0.76156616;0.24114381;1566.4172;-6864.191;-5297.7734;-1802.9753;0.0;0.0;1838.2656
1350.425;0.76133734;0.23851353;1565.551;-6865.539;-5299.9883;-1815.7484;0.0;0.0;1838.2656
1350.43;0.7611411;0.23692892;1564.8862;-6866.527;-5301.6406;-1823.1576;0.0;0.0;1838.2656
1350.435;0.7610214;0.23606126;1564.5541;-6867.494;-5302.94;-1827.2783;0.0;0.0;1838.2656
1350.44;0.7609873;0.23559375;1564.4922;-6868.4326;-5303.9404;-1829.7327;0.0;0.0;1838.2656
1350.445;0.7609883;0.23556113;1564.4451;-6869.1475;-5304.702;-1829.8184;0.0;0.0;1838.2656
1350.45;0.7609469;0.2361027;1564.0942;-6869.5347;-5305.4404;-1826.1301;0.0;0.0;1838.2656
1350.455;0.7607912;0.23794368;1563.2024;-6868.8555;-5305.6533;-1814.1937;0.0;0.0;1838.2656
1350.46;0.76048976;0.24131955;1561.744;-6867.0356;-5305.2915;-1792.6598;0.0;0.0;1838.2656
1350.465;0.7600748;0.24683712;1559.956;-6863.5454;-5303.5894;-1758.6555;0.0;0.0;1838.2656
1350.47;0.759639;0.25457028;1558.261;-6858.2695;-5300.009;-1712.6187;0.0;0.0;1838.2656
1350.475;0.759296;0.26410913;1557.1012;-6851.509;-5294.4077;-1657.6942;0.0;0.0;1838.2656
1350.48;0.7591402;0.27392122;1556.8267;-6844.927;-5288.1;-1603.0334;0.0;0.0;1838.2656
1350.485;0.75923645;0.28332955;1557.6208;-6838.593;-5280.9717;-1552.7368;0.0;0.0;1838.2656
1350.49;0.75959325;0.29046828;1559.4231;-6834.3374;-5274.914;-1516.9727;0.0;0.0;1838.2656
1350.495;0.7601545;0.2947563;1561.9031;-6832.198;-5270.295;-1498.285;0.0;0.0;1838.2656
1350.5;0.7608035;0.2952974;1564.5281;-6833.291;-5268.7627;-1500.5509;0.0;0.0;1838.2656
1350.505;0.7613975;0.2927801;1566.7681;-6836.539;-5269.771;-1518.9133;0.0;0.0;1838.2656
1350.51;0.76183397;0.28779668;1568.2871;-6841.295;-5273.008;-1549.4341;0.0;0.0;1838.2656
1350.515;0.76206845;0.28175956;1568.9949;-6846.329;-5277.334;-1584.1431;0.0;0.0;1838.2656
1350.52;0.7621138;0.2752674;1568.9717;-6851.563;-5282.5913;-1619.8995;0.0;0.0;1838.2656
1350.525;0.7620024;0.2693827;1568.3507;-6856.0864;-5287.736;-1651.1107;0.0;0.0;1838.2656
1350.53;0.7617706;0.26452172;1567.2954;-6859.7134;-5292.418;-1675.8073;0.0;0.0;1838.2656
1350.535;0.76146454;0.26097474;1566.0157;-6862.427;-5296.411;-1692.8088;0.0;0.0;1838.2656
1350.54;0.76114225;0.25927278;1564.7748;-6863.5615;-5298.7866;-1699.7128;0.0;0.0;1838.2656
1350.545;0.7608716;0.2587054;1563.8055;-6864.057;-5300.2515;-1700.9034;0.0;0.0;1838.2656
1350.55;0.7606914;0.25924397;1563.221;-6863.5723;-5300.3516;-1696.764;0.0;0.0;1838.2656
1350.555;0.760609;0.26012558;1563.0039;-6863.1123;-5300.1084;-1691.468;0.0;0.0;1838.2656
1350.56;0.7606034;0.2611916;1563.0488;-6862.415;-5299.366;-1685.679;0.0;0.0;1838.2656
1350.565;0.7606431;0.26212776;1563.2449;-6861.6934;-5298.448;-1680.9084;0.0;0.0;1838.2656
1350.57;0.76070803;0.26253656;1563.5356;-6861.5967;-5298.061;-1679.2355;0.0;0.0;1838.2656
1350.575;0.7607912;0.26245135;1563.8965;-6861.7812;-5297.885;-1680.4271;0.0;0.0;1838.2656
1350.58;0.76088524;0.26170048;1564.2672;-6862.5986;-5298.3315;-1685.3094;0.0;0.0;1838.2656
1350.585;0.760967;0.26073712;1564.539;-6863.2227;-5298.6836;-1691.1656;0.0;0.0;1838.2656
1350.59;0.76100636;0.25930837;1564.6149;-6864.395;-5299.7803;-1699.1967;0.0;0.0;1838.2656
1350.595;0.7609903;0.25797457;1564.4547;-6865.2866;-5300.832;-1706.232;0.0;0.0;1838.2656
1350.6;0.76091766;0.25700632;1564.1122;-6865.7803;-5301.668;-1710.8867;0.0;0.0;1838.2656
1350.605;0.76081944;0.2564662;1563.7266;-6865.924;-5302.1973;-1713.094;0.0;0.0;1838.2656
1350.61;0.7607333;0.2564405;1563.4312;-6865.5054;-5302.074;-1712.645;0.0;0.0;1838.2656
1350.615;0.7606824;0.25638464;1563.2952;-6865.46;-5302.165;-1712.681;0.0;0.0;1838.2656
1350.62;0.7606739;0.2564155;1563.3074;-6865.206;-5301.8984;-1712.5354;0.0;0.0;1838.2656
1350.625;0.7606901;0.25654998;1563.3782;-6865.1016;-5301.7236;-1711.9353;0.0;0.0;1838.2656
1350.63;0.7607054;0.25657412;1563.3987;-6864.961;-5301.5625;-1711.8433;0.0;0.0;1838.2656
1350.635;0.760695;0.25657293;1563.3232;-6864.982;-5301.6587;-1711.6989;0.0;0.0;1838.2656
1350.64;0.7606662;0.25672132;1563.2097;-6865.0713;-5301.8613;-1710.6536;0.0;0.0;1838.2656
1350.645;0.7606408;0.25740984;1563.1287;-6864.3867;-5301.258;-1706.6943;0.0;0.0;1838.2656
1350.65;0.76062745;0.2580695;1563.0955;-6864.04;-5300.9443;-1702.99;0.0;0.0;1838.2656
1350.655;0.76062167;0.25872624;1563.06;-6863.828;-5300.768;-1699.2975;0.0;0.0;1838.2656
1350.66;0.7606042;0.25952378;1562.9822;-6863.6978;-5300.716;-1694.7434;0.0;0.0;1838.2656
1350.665;0.760578;0.26068464;1562.8655;-6863.144;-5300.2783;-1688.108;0.0;0.0;1838.2656
1350.67;0.7605455;0.26232833;1562.777;-6862.0796;-5299.3027;-1678.8666;0.0;0.0;1838.2656
1350.675;0.76054007;0.2641016;1562.8474;-6860.8223;-5297.9746;-1669.2281;0.0;0.0;1838.2656
1350.68;0.76058984;0.26515678;1563.1814;-6860.828;-5297.6465;-1664.077;0.0;0.0;1838.2656
1350.685;0.7607113;0.2658562;1563.7865;-6860.923;-5297.136;-1661.43;0.0;0.0;1838.2656
1350.69;0.7608811;0.26569963;1564.5032;-6861.9004;-5297.3975;-1663.7268;0.0;0.0;1838.2656
1350.695;0.76104045;0.2646407;1565.0953;-6863.6846;-5298.5894;-1670.751;0.0;0.0;1838.2656
1350.7;0.76113796;0.2632552;1565.4192;-6865.4336;-5300.0146;-1679.0393;0.0;0.0;1838.2656
1350.705;0.7611634;0.2616402;1565.4652;-6867.416;-5301.9507;-1688.0378;0.0;0.0;1838.2656
1350.71;0.7611287;0.26011226;1565.3207;-6869.2065;-5303.8857;-1696.175;0.0;0.0;1838.2656
1350.715;0.7610654;0.25877345;1565.0739;-6870.826;-5305.7524;-1703.0647;0.0;0.0;1838.2656
1350.72;0.76098406;0.25788492;1564.7484;-6871.9893;-5307.2407;-1707.3138;0.0;0.0;1838.2656
1350.725;0.76088405;0.2572496;1564.3218;-6873.003;-5308.681;-1709.9642;0.0;0.0;1838.2656
1350.73;0.76075536;0.25731182;1563.7578;-6873.2744;-5309.5166;-1708.4932;0.0;0.0;1838.2656
1350.735;0.7605933;0.2579758;1563.0753;-6873.2197;-5310.1445;-1703.4666;0.0;0.0;1838.2656
1350.74;0.7604126;0.2597272;1562.305;-6872.0474;-5309.742;-1692.2673;0.0;0.0;1838.2656
1350.745;0.76021206;0.26248115;1561.4532;-6870.0615;-5308.6084;-1675.3762;0.0;0.0;1838.2656
1350.75;0.7599952;0.26657918;1560.5352;-6866.8184;-5306.283;-1650.9402;0.0;0.0;1838.2656
1350.755;0.75976706;0.2716949;1559.5952;-6862.841;-5303.2456;-1620.8481;0.0;0.0;1838.2656
1350.76;0.75954676;0.27786914;1558.7405;-6858.0854;-5299.3447;-1585.0891;0.0;0.0;1838.2656
1350.765;0.75936997;0.28487828;1558.1144;-6852.889;-5294.775;-1545.183;0.0;0.0;1838.2656
1350.77;0.7592682;0.2923597;1557.8257;-6847.1636;-5289.338;-1503.347;0.0;0.0;1838.2656
1350.775;0.75926006;0.29970548;1557.9354;-6841.6865;-5283.751;-1463.0562;0.0;0.0;1838.2656
1350.78;0.759352;0.30670106;1558.4395;-6836.4077;-5277.9683;-1425.4849;0.0;0.0;1838.2656
1350.785;0.7595304;0.31264055;1559.2512;-6831.849;-5272.5977;-1394.3534;0.0;0.0;1838.2656
1350.79;0.7597625;0.31710482;1560.2139;-6828.482;-5268.268;-1371.659;0.0;0.0;1838.2656
1350.795;0.7600031;0.320081;1561.1598;-6826.243;-5265.0835;-1357.138;0.0;0.0;1838.2656
1350.8;0.76021814;0.32174495;1561.9841;-6824.667;-5262.6826;-1349.6102;0.0;0.0;1838.2656
1350.805;0.7603959;0.32223883;1562.6577;-6823.74;-5261.0825;-1348.2338;0.0;0.0;1838.2656
1350.81;0.7605389;0.3214725;1563.2365;-6823.662;-5260.426;-1353.6173;0.0;0.0;1838.2656
1350.815;0.7606743;0.3197043;1563.8298;-6824.0605;-5260.2305;-1364.5554;0.0;0.0;1838.2656
1350.82;0.7608287;0.31672212;1564.5334;-6825.2646;-5260.7314;-1382.4087;0.0;0.0;1838.2656
1350.825;0.76101893;0.31255177;1565.3948;-6827.227;-5261.832;-1407.13;0.0;0.0;1838.2656
1350.83;0.76124674;0.3067628;1566.3667;-6830.42;-5264.053;-1440.9989;0.0;0.0;1838.2656
1350.835;0.76148254;0.29968172;1567.3081;-6834.5264;-5267.2183;-1481.9324;0.0;0.0;1838.2656
1350.84;0.761686;0.29139632;1568.0481;-6839.4434;-5271.3955;-1529.1047;0.0;0.0;1838.2656
1350.845;0.7618167;0.28262103;1568.468;-6844.524;-5276.0557;-1578.3385;0.0;0.0;1838.2656
1350.85;0.76186275;0.27365944;1568.5466;-6849.645;-5281.0986;-1627.917;0.0;0.0;1838.2656
1350.855;0.76183075;0.26486725;1568.3447;-6854.704;-5286.3594;-1676.0004;0.0;0.0;1838.2656
1350.86;0.76174486;0.25680763;1567.9491;-6859.117;-5291.168;-1719.6562;0.0;0.0;1838.2656
1350.865;0.7616221;0.24933264;1567.4171;-6863.411;-5295.994;-1759.8153;0.0;0.0;1838.2656
1350.87;0.76147085;0.24289203;1566.7578;-6867.0684;-5300.3105;-1794.0154;0.0;0.0;1838.2656
1350.875;0.76128644;0.23799294;1565.9426;-6869.4746;-5303.532;-1819.4026;0.0;0.0;1838.2656
1350.88;0.76106167;0.23454122;1564.9468;-6870.804;-5305.8574;-1836.4463;0.0;0.0;1838.2656
1350.885;0.76079446;0.23251592;1563.8323;-6871.537;-5307.705;-1845.3865;0.0;0.0;1838.2656
1350.89;0.7605231;0.23226668;1562.7764;-6870.9126;-5308.136;-1844.6492;0.0;0.0;1838.2656
1350.895;0.7602964;0.23323932;1561.9736;-6869.79;-5307.8164;-1837.6798;0.0;0.0;1838.2656
1350.9;0.760157;0.23557259;1561.5665;-6867.331;-5305.7646;-1823.998;0.0;0.0;1838.2656
1350.905;0.76012033;0.23817407;1561.5269;-6865.3784;-5303.8516;-1809.5721;0.0;0.0;1838.2656
1350.91;0.7601495;0.24077699;1561.6687;-6863.758;-5302.089;-1795.5012;0.0;0.0;1838.2656
1350.915;0.7601894;0.24341178;1561.7991;-6862.293;-5300.494;-1781.2317;0.0;0.0;1838.2656
1350.92;0.7602073;0.24635749;1561.814;-6860.66;-5298.846;-1765.0165;0.0;0.0;1838.2656
1350.925;0.7601918;0.24955589;1561.7046;-6858.9194;-5297.215;-1747.1592;0.0;0.0;1838.2656
1350.93;0.76015204;0.25355226;1561.4973;-6856.469;-5294.9717;-1724.7054;0.0;0.0;1838.2656
1350.935;0.76009166;0.2575586;1561.1971;-6854.4946;-5293.2974;-1702.0109;0.0;0.0;1838.2656
1350.94;0.76000816;0.26234984;1560.8018;-6851.896;-5291.094;-1674.7974;0.0;0.0;1838.2656
1350.945;0.7599048;0.26791286;1560.3147;-6848.88;-5288.5654;-1643.1444;0.0;0.0;1838.2656
1350.95;0.75978094;0.27426022;1559.7589;-6845.4023;-5285.6436;-1607.0284;0.0;0.0;1838.2656
1350.955;0.7596491;0.28160882;1559.185;-6840.9453;-5281.7603;-1565.3546;0.0;0.0;1838.2656
1350.96;0.75952214;0.28968453;1558.654;-6836.327;-5277.673;-1519.7567;0.0;0.0;1838.2656
1350.965;0.7594168;0.29835057;1558.2314;-6831.2334;-5273.002;-1471.12;0.0;0.0;1838.2656
1350.97;0.7593454;0.3075001;1557.9402;-6826.034;-5268.0938;-1420.0797;0.0;0.0;1838.2656
1350.975;0.7593032;0.31710407;1557.7383;-6820.441;-5262.7026;-1366.712;0.0;0.0;1838.2656
1350.98;0.7592698;0.3269727;1557.5239;-6814.591;-5257.067;-1311.8597;0.0;0.0;1838.2656
1350.985;0.75921726;0.33702552;1557.2212;-6808.7227;-5251.5015;-1255.8151;0.0;0.0;1838.2656
1350.99;0.7591432;0.34729367;1556.8833;-6802.5674;-5245.684;-1198.5125;0.0;0.0;1838.2656
1350.995;0.7590821;0.3578958;1556.6874;-6796.0938;-5239.4062;-1139.6521;0.0;0.0;1838.2656
1351.0;0.7590887;0.36816126;1556.8643;-6789.7715;-5232.907;-1083.3939;0.0;0.0;1838.2656
1351.005;0.75921685;0.37744203;1557.6068;-6784.286;-5226.679;-1033.6975;0.0;0.0;1838.2656
1351.01;0.7594985;0.38499242;1558.9791;-6780.1167;-5221.1377;-994.80316;0.0;0.0;1838.2656
1351.015;0.759917;0.39018065;1560.8228;-6777.459;-5216.636;-969.87854;0.0;0.0;1838.2656
1351.02;0.76039517;0.39236602;1562.7461;-6777.354;-5214.608;-961.67334;0.0;0.0;1838.2656
1351.025;0.76082087;0.39235356;1564.3595;-6778.292;-5213.9326;-964.96875;0.0;0.0;1838.2656
1351.03;0.7611335;0.39016604;1565.5264;-6780.663;-5215.1367;-979.3662;0.0;0.0;1838.2656
1351.035;0.76134145;0.3865755;1566.3193;-6783.728;-5217.4087;-1000.75336;0.0;0.0;1838.2656
1351.04;0.76147646;0.38187447;1566.8456;-6786.9863;-5220.1406;-1027.7311;0.0;0.0;1838.2656
1351.045;0.76155955;0.37643465;1567.1721;-6790.727;-5223.5547;-1058.3835;0.0;0.0;1838.2656
1351.05;0.7616044;0.37050292;1567.3716;-6794.5166;-5227.145;-1091.4948;0.0;0.0;1838.2656
1351.055;0.7616324;0.36416528;1567.5122;-6798.4766;-5230.9644;-1126.7269;0.0;0.0;1838.2656
1351.06;0.7616555;0.3571489;1567.6411;-6803.053;-5235.412;-1165.6786;0.0;0.0;1838.2656
1351.065;0.76168054;0.3500126;1567.7593;-6807.6387;-5239.8794;-1205.2701;0.0;0.0;1838.2656
1351.07;0.761701;0.34260756;1567.8345;-6812.3037;-5244.469;-1246.2579;0.0;0.0;1838.2656
1351.075;0.76170385;0.33528247;1567.8141;-6816.7314;-5248.9175;-1286.6134;0.0;0.0;1838.2656
1351.08;0.76167715;0.32807982;1567.677;-6821.131;-5253.454;-1326.0603;0.0;0.0;1838.2656
1351.085;0.76162183;0.3209185;1567.3965;-6825.751;-5258.3545;-1364.9926;0.0;0.0;1838.2656
1351.09;0.76152366;0.31440285;1566.9362;-6829.717;-5262.781;-1400.0045;0.0;0.0;1838.2656
1351.095;0.7613772;0.30868202;1566.2446;-6833.252;-5267.0073;-1430.1705;0.0;0.0;1838.2656
1351.1;0.7611654;0.30434075;1565.2781;-6835.448;-5270.17;-1452.1787;0.0;0.0;1838.2656
1351.105;0.7608887;0.3016218;1564.0623;-6836.215;-5272.1523;-1464.7416;0.0;0.0;1838.2656
1351.11;0.7605667;0.3004028;1562.749;-6835.8525;-5273.1035;-1468.8376;0.0;0.0;1838.2656
1351.115;0.7602595;0.30087066;1561.6;-6834.249;-5272.649;-1463.9594;0.0;0.0;1838.2656
