time;temperature;pressure;kinetic_energy;potential_energy;total_energy;virial;msd;diffusion;volume
1990.005;0.5051026;-0.09835473;1038.955;-7749.4775;-6710.5225;-2620.3162;0.0;0.0;1838.2656
1990.01;0.5051076;-0.10172145;1038.9218;-7751.2295;-6712.3076;-2638.8167;0.0;0.0;1838.2656
1990.015;0.50507104;-0.104914196;1038.7625;-7752.6367;-6713.874;-2656.1055;0.0;0.0;1838.2656
1990.02;0.5050193;-0.107850425;1038.5632;-7753.895;-6715.332;-2671.8997;0.0;0.0;1838.2656
1990.025;0.50496596;-0.11044086;1038.3677;-7754.8926;-6716.525;-2685.7942;0.0;0.0;1838.2656
1990.03;0.50491625;-0.112961344;1038.1758;-7755.9976;-6717.822;-2699.3103;0.0;0.0;1838.2656
1990.035;0.50486434;-0.11491954;1037.9669;-7756.6235;-6718.6567;-2709.6917;0.0;0.0;1838.2656
1990.04;0.50480753;-0.11654168;1037.75;-7757.115;-6719.365;-2718.2036;0.0;0.0;1838.2656
1990.045;0.504753;-0.11793707;1037.541;-7757.677;-6720.1357;-2725.481;0.0;0.0;1838.2656
1990.05;0.5047019;-0.11876274;1037.3503;-7757.5044;-6720.1543;-2729.653;0.0;0.0;1838.2656
1990.055;0.50465703;-0.119417034;1037.1907;-7757.6606;-6720.4697;-2732.9421;0.0;0.0;1838.2656
1990.06;0.5046213;-0.11966594;1037.0491;-7757.4233;-6720.374;-2734.0315;0.0;0.0;1838.2656
1990.065;0.50458413;-0.11960168;1036.8906;-7757.1206;-6720.23;-2733.3604;0.0;0.0;1838.2656
1990.07;0.5045402;-0.11920623;1036.7034;-7756.6494;-6719.9463;-2730.805;0.0;0.0;1838.2656
1990.075;0.50448966;-0.1183077;1036.4961;-7755.832;-6719.336;-2725.435;0.0;0.0;1838.2656
1990.08;0.50443727;-0.11689441;1036.294;-7754.735;-6718.441;-2717.2368;0.0;0.0;1838.2656
1990.085;0.5043904;-0.1152281;1036.1171;-7753.5605;-6717.4434;-2707.6936;0.0;0.0;1838.2656
1990.09;0.50434965;-0.11336431;1035.9573;-7752.4937;-6716.536;-2697.0957;0.0;0.0;1838.2656
1990.095;0.5043095;-0.11126418;1035.7816;-7751.55;-6715.768;-2685.1626;0.0;0.0;1838.2656
1990.1;0.50425994;-0.10874527;1035.5657;-7750.266;-6714.7;-2670.8394;0.0;0.0;1838.2656
1990.105;0.5042013;-0.10542052;1035.3312;-7747.9395;-6712.6084;-2652.0352;0.0;0.0;1838.2656
1990.11;0.5041459;-0.10209823;1035.1282;-7745.99;-6710.8623;-2633.3074;0.0;0.0;1838.2656
1990.115;0.5041075;-0.09838897;1035.0375;-7743.675;-6708.637;-2612.6702;0.0;0.0;1838.2656
1990.12;0.50411195;-0.094940595;1035.1589;-7741.8076;-6706.6484;-2593.896;0.0;0.0;1838.2656
1990.125;0.50417894;-0.091935106;1035.5415;-7740.336;-6704.7944;-2578.0864;0.0;0.0;1838.2656
1990.13;0.50430876;-0.089715675;1036.157;-7739.702;-6703.545;-2567.0776;0.0;0.0;1838.2656
1990.135;0.5044837;-0.08819727;1036.9114;-7739.3;-6702.3887;-2560.2126;0.0;0.0;1838.2656
1990.14;0.5046727;-0.087712966;1037.6691;-7739.8936;-6702.2246;-2559.0574;0.0;0.0;1838.2656
1990.145;0.5048407;-0.0880618;1038.2836;-7740.909;-6702.6255;-2562.21;0.0;0.0;1838.2656
1990.15;0.5049528;-0.08895366;1038.6208;-7742.264;-6703.6436;-2567.803;0.0;0.0;1838.2656
1990.155;0.50498235;-0.09025117;1038.6077;-7743.935;-6705.327;-2574.9321;0.0;0.0;1838.2656
1990.16;0.50492454;-0.0912378;1038.254;-7745.3096;-6707.0557;-2579.666;0.0;0.0;1838.2656
1990.165;0.5047939;-0.09145939;1037.6475;-7745.793;-6708.1455;-2579.6748;0.0;0.0;1838.2656
1990.17;0.504621;-0.09083301;1036.9203;-7745.599;-6708.6787;-2574.766;0.0;0.0;1838.2656
1990.175;0.50444055;-0.08931684;1036.2064;-7744.5024;-6708.296;-2564.977;0.0;0.0;1838.2656
1990.18;0.5042812;-0.08710987;1035.6145;-7742.9004;-6707.286;-2551.6223;0.0;0.0;1838.2656
1990.185;0.50416476;-0.08446904;1035.2166;-7741.0513;-6705.835;-2536.2627;0.0;0.0;1838.2656
1990.19;0.5041029;-0.08161793;1035.0446;-7739.043;-6703.9985;-2520.1953;0.0;0.0;1838.2656
1990.195;0.5040966;-0.0788552;1035.092;-7737.038;-6701.9463;-2505.0544;0.0;0.0;1838.2656
1990.2;0.5041401;-0.07646007;1035.3259;-7735.212;-6699.8857;-2492.3137;0.0;0.0;1838.2656
1990.205;0.5042219;-0.074686624;1035.7065;-7733.8555;-6698.149;-2483.2947;0.0;0.0;1838.2656
1990.21;0.5043333;-0.0736087;1036.1897;-7733.0254;-6696.836;-2478.3164;0.0;0.0;1838.2656
1990.215;0.50446117;-0.0732566;1036.7231;-7732.3066;-6695.5835;-2477.4417;0.0;0.0;1838.2656
1990.22;0.50459385;-0.07396955;1037.2715;-7732.586;-6695.3145;-2482.47;0.0;0.0;1838.2656
1990.225;0.5047259;-0.07559329;1037.8086;-7733.4434;-6695.635;-2492.4988;0.0;0.0;1838.2656
1990.23;0.5048488;-0.078150004;1038.286;-7735.086;-6696.8;-2507.5535;0.0;0.0;1838.2656
1990.235;0.5049463;-0.081152774;1038.6337;-7736.812;-6698.178;-2524.8083;0.0;0.0;1838.2656
1990.24;0.50500005;-0.08458808;1038.7758;-7738.8013;-6700.0254;-2544.0376;0.0;0.0;1838.2656
1990.245;0.50499386;-0.08805402;1038.6598;-7740.717;-6702.057;-2562.9197;0.0;0.0;1838.2656
1990.25;0.5049229;-0.091135256;1038.2993;-7742.096;-6703.797;-2579.1912;0.0;0.0;1838.2656
1990.255;0.50480324;-0.093499154;1037.7832;-7742.785;-6705.002;-2591.1953;0.0;0.0;1838.2656
1990.26;0.50466394;-0.09526398;1037.2341;-7743.25;-6706.0156;-2599.8298;0.0;0.0;1838.2656
1990.265;0.5045355;-0.09633439;1036.7502;-7742.9946;-6706.244;-2604.7651;0.0;0.0;1838.2656
1990.27;0.5044326;-0.09677176;1036.3839;-7742.472;-6706.0884;-2606.4443;0.0;0.0;1838.2656
1990.275;0.50436425;-0.09672084;1036.1503;-7741.474;-6705.3237;-2605.6963;0.0;0.0;1838.2656
1990.28;0.5043254;-0.096624784;1036.0159;-7740.7236;-6704.708;-2604.8977;0.0;0.0;1838.2656
1990.285;0.504304;-0.09616713;1035.9354;-7739.796;-6703.8604;-2602.2131;0.0;0.0;1838.2656
1990.29;0.5042898;-0.09548053;1035.8634;-7738.4336;-6702.5703;-2598.2825;0.0;0.0;1838.2656
1990.295;0.50427043;-0.094635844;1035.7633;-7737.049;-6701.2856;-2593.424;0.0;0.0;1838.2656
1990.3;0.504243;-0.09370704;1035.6526;-7735.6426;-6699.99;-2588.0806;0.0;0.0;1838.2656
1990.305;0.5042206;-0.092624016;1035.5815;-7734.1084;-6698.527;-2581.9658;0.0;0.0;1838.2656
1990.31;0.504216;-0.09172426;1035.6146;-7732.8994;-6697.2847;-2577.0698;0.0;0.0;1838.2656
1990.315;0.50424576;-0.090770125;1035.7859;-7731.455;-6695.669;-2572.1506;0.0;0.0;1838.2656
1990.32;0.5043063;-0.0900834;1036.0537;-7730.1123;-6694.0586;-2568.8992;0.0;0.0;1838.2656
1990.325;0.50437814;-0.08977243;1036.3231;-7729.036;-6692.713;-2567.723;0.0;0.0;1838.2656
1990.33;0.50443524;-0.08996344;1036.4928;-7728.5454;-6692.0527;-2569.1157;0.0;0.0;1838.2656
1990.335;0.5044575;-0.090406924;1036.5208;-7728.2285;-6691.708;-2571.6174;0.0;0.0;1838.2656
1990.34;0.50444806;-0.09081745;1036.4417;-7727.579;-6691.1377;-2573.7231;0.0;0.0;1838.2656
1990.345;0.50442374;-0.091312476;1036.3394;-7727.0757;-6690.7363;-2576.2485;0.0;0.0;1838.2656
1990.35;0.50440943;-0.09171368;1036.3282;-7726.222;-6689.894;-2578.4387;0.0;0.0;1838.2656
1990.355;0.5044356;-0.09250086;1036.5269;-7725.6597;-6689.133;-2583.1772;0.0;0.0;1838.2656
1990.36;0.50452596;-0.09400796;1037.0071;-7725.747;-6688.74;-2592.449;0.0;0.0;1838.2656
1990.365;0.50468814;-0.09651546;1037.79;-7726.5156;-6688.7256;-2607.8433;0.0;0.0;1838.2656
1990.37;0.5049194;-0.10034088;1038.82;-7728.292;-6689.472;-2630.9995;0.0;0.0;1838.2656
1990.375;0.5051906;-0.105687514;1039.9597;-7731.2354;-6691.2754;-2662.7646;0.0;0.0;1838.2656
1990.38;0.5054619;-0.1127603;1041.019;-7735.671;-6694.652;-2703.8882;0.0;0.0;1838.2656
1990.385;0.5056797;-0.120655365;1041.801;-7740.4497;-6698.6484;-2748.992;0.0;0.0;1838.2656
1990.39;0.505806;-0.12923433;1042.1616;-7745.5894;-6703.4277;-2797.0242;0.0;0.0;1838.2656
1990.395;0.50581294;-0.1379341;1042.0151;-7751.0117;-6708.9966;-2844.7087;0.0;0.0;1838.2656
1990.4;0.50569344;-0.1456096;1041.3689;-7755.1943;-6713.825;-2885.745;0.0;0.0;1838.2656
1990.405;0.505463;-0.15228632;1040.3096;-7758.752;-6718.4424;-2920.4473;0.0;0.0;1838.2656
1990.41;0.5051529;-0.15726742;1038.9963;-7761.0728;-6722.076;-2945.2905;0.0;0.0;1838.2656
1990.415;0.5048115;-0.16028938;1037.6334;-7761.7866;-6724.1533;-2959.2302;0.0;0.0;1838.2656
1990.42;0.50448984;-0.1616643;1036.419;-7761.533;-6725.1143;-2964.3838;0.0;0.0;1838.2656
1990.425;0.50423163;-0.1615221;1035.5083;-7760.1357;-6724.6274;-2961.7783;0.0;0.0;1838.2656
1990.43;0.5040638;-0.16023894;1034.991;-7757.9277;-6722.9365;-2953.6672;0.0;0.0;1838.2656
1990.435;0.50399774;-0.15856604;1034.8501;-7755.8237;-6720.9736;-2944.1597;0.0;0.0;1838.2656
1990.44;0.50400907;-0.15685473;1034.9849;-7753.8535;-6718.8687;-2934.9917;0.0;0.0;1838.2656
1990.445;0.50407;-0.155255;1035.2574;-7752.209;-6716.9517;-2926.7148;0.0;0.0;1838.2656
1990.45;0.50414085;-0.15406373;1035.5225;-7751.085;-6715.5625;-2920.675;0.0;0.0;1838.2656
1990.455;0.50419265;-0.15296885;1035.6843;-7750.1094;-6714.425;-2914.9607;0.0;0.0;1838.2656
1990.46;0.5042116;-0.15180224;1035.7225;-7749.1475;-6713.425;-2908.6035;0.0;0.0;1838.2656
1990.465;0.5042042;-0.15041307;1035.6707;-7747.9023;-6712.2314;-2900.8389;0.0;0.0;1838.2656
1990.47;0.5041817;-0.1488546;1035.5688;-7746.5415;-6710.9727;-2892.0405;0.0;0.0;1838.2656
1990.475;0.50415176;-0.14731409;1035.4501;-7745.5645;-6710.1143;-2883.3074;0.0;0.0;1838.2656
1990.48;0.5041219;-0.14515312;1035.3226;-7743.83;-6708.5073;-2871.1353;0.0;0.0;1838.2656
1990.485;0.50408787;-0.14305893;1035.166;-7742.298;-6707.132;-2859.273;0.0;0.0;1838.2656
1990.49;0.5040439;-0.1405613;1034.9626;-7740.4424;-6705.4795;-2845.0923;0.0;0.0;1838.2656
1990.495;0.50398904;-0.1379505;1034.7194;-7738.56;-6703.841;-2830.2078;0.0;0.0;1838.2656
1990.5;0.50392926;-0.13455962;1034.4834;-7735.7554;-6701.272;-2811.036;0.0;0.0;1838.2656
1990.505;0.50388366;-0.13133185;1034.3445;-7733.3496;-6699.005;-2792.9575;0.0;0.0;1838.2656
1990.51;0.5038764;-0.1281935;1034.3866;-7731.0723;-6696.6855;-2775.7344;0.0;0.0;1838.2656
1990.515;0.5039217;-0.12519243;1034.6611;-7728.9023;-6694.241;-2759.7332;0.0;0.0;1838.2656
1990.52;0.5040264;-0.122948006;1035.1633;-7727.284;-6692.121;-2748.3599;0.0;0.0;1838.2656
1990.525;0.5041778;-0.12150259;1035.8386;-7726.2715;-6690.4326;-2741.7393;0.0;0.0;1838.2656
1990.53;0.50435966;-0.12097293;1036.5928;-7725.953;-6689.3604;-2740.3267;0.0;0.0;1838.2656
1990.535;0.50454104;-0.12149514;1037.3035;-7726.5234;-6689.2197;-2744.628;0.0;0.0;1838.2656
1990.54;0.50469464;-0.12269892;1037.8724;-7727.384;-6689.511;-2752.4045;0.0;0.0;1838.2656
1990.545;0.5048009;-0.12456044;1038.2231;-7728.535;-6690.312;-2763.3718;0.0;0.0;1838.2656
1990.55;0.5048452;-0.12659186;1038.3033;-7729.827;-6691.524;-2774.735;0.0;0.0;1838.2656
1990.555;0.50482005;-0.12870225;1038.1188;-7731.247;-6693.1284;-2786.0044;0.0;0.0;1838.2656
1990.56;0.50473976;-0.13047351;1037.7434;-7732.301;-6694.5576;-2795.0217;0.0;0.0;1838.2656
1990.565;0.50462824;-0.13158746;1037.2825;-7732.7695;-6695.4873;-2800.2432;0.0;0.0;1838.2656
1990.57;0.50451374;-0.13227743;1036.851;-7732.9307;-6696.0796;-2803.185;0.0;0.0;1838.2656
1990.575;0.5044238;-0.1325834;1036.5696;-7732.838;-6696.2686;-2804.3096;0.0;0.0;1838.2656
1990.58;0.5043878;-0.13253146;1036.5271;-7732.3896;-6695.8623;-2803.9382;0.0;0.0;1838.2656
1990.585;0.50441545;-0.13282508;1036.743;-7732.411;-6695.668;-2805.9895;0.0;0.0;1838.2656
1990.59;0.5045015;-0.13343209;1037.1536;-7732.6626;-6695.509;-2810.158;0.0;0.0;1838.2656
1990.595;0.50461584;-0.13473545;1037.615;-7733.615;-6696.0;-2818.2686;0.0;0.0;1838.2656
1990.6;0.504717;-0.13657047;1037.9529;-7735.052;-6697.0986;-2829.0642;0.0;0.0;1838.2656
1990.605;0.5047631;-0.13819739;1038.0265;-7735.9395;-6697.913;-2838.1836;0.0;0.0;1838.2656
1990.61;0.50473225;-0.1397882;1037.7678;-7736.921;-6699.1533;-2846.4392;0.0;0.0;1838.2656
1990.615;0.5046185;-0.14072639;1037.194;-7737.3877;-6700.194;-2850.4653;0.0;0.0;1838.2656
1990.62;0.5044399;-0.14077571;1036.3928;-7737.1157;-6700.7227;-2849.135;0.0;0.0;1838.2656
1990.625;0.50422317;-0.13972701;1035.4841;-7736.0195;-6700.535;-2841.5344;0.0;0.0;1838.2656
1990.63;0.50399995;-0.1375663;1034.5841;-7734.0728;-6699.489;-2827.8184;0.0;0.0;1838.2656
1990.635;0.5037951;-0.13418375;1033.8002;-7731.1606;-6697.3604;-2807.5964;0.0;0.0;1838.2656
1990.64;0.5036358;-0.1300002;1033.2394;-7727.622;-6694.383;-2783.4036;0.0;0.0;1838.2656
1990.645;0.5035449;-0.1254946;1032.992;-7723.8887;-6690.8965;-2758.061;0.0;0.0;1838.2656
1990.65;0.503541;-0.121022694;1033.1115;-7720.215;-6687.1035;-2733.6384;0.0;0.0;1838.2656
1990.655;0.50362676;-0.11718265;1033.5621;-7717.342;-6683.78;-2713.3628;0.0;0.0;1838.2656
1990.66;0.50377744;-0.11393393;1034.2344;-7714.6084;-6680.374;-2696.7913;0.0;0.0;1838.2656
1990.665;0.5039622;-0.111866;1034.9934;-7712.823;-6677.83;-2686.905;0.0;0.0;1838.2656
1990.67;0.50414616;-0.11080468;1035.702;-7711.7197;-6676.0176;-2682.4692;0.0;0.0;1838.2656
1990.675;0.5043012;-0.11093816;1036.2833;-7711.6846;-6675.4014;-2684.3682;0.0;0.0;1838.2656
1990.68;0.50442064;-0.11146104;1036.7219;-7711.661;-6674.9395;-2688.129;0.0;0.0;1838.2656
1990.685;0.5045068;-0.11275825;1037.0363;-7712.2036;-6675.1675;-2695.9114;0.0;0.0;1838.2656
1990.69;0.50456595;-0.11441198;1037.2515;-7712.797;-6675.5454;-2705.4617;0.0;0.0;1838.2656
1990.695;0.5046045;-0.116526;1037.395;-7713.8096;-6676.4146;-2717.4072;0.0;0.0;1838.2656
1990.7;0.5046286;-0.11858222;1037.482;-7714.5566;-6677.0747;-2728.921;0.0;0.0;1838.2656
1990.705;0.5046388;-0.12074047;1037.5083;-7715.3257;-6677.8174;-2740.8757;0.0;0.0;1838.2656
1990.71;0.50463194;-0.122819535;1037.447;-7715.794;-6678.3467;-2752.2188;0.0;0.0;1838.2656
1990.715;0.5045969;-0.12497628;1037.2607;-7716.43;-6679.1694;-2763.7402;0.0;0.0;1838.2656
1990.72;0.50452775;-0.12657906;1036.9348;-7716.4062;-6679.4717;-2771.9275;0.0;0.0;1838.2656
1990.725;0.50442743;-0.12758218;1036.5044;-7715.7974;-6679.293;-2776.5986;0.0;0.0;1838.2656
1990.73;0.504314;-0.1283324;1036.0776;-7715.1143;-6679.0366;-2779.8823;0.0;0.0;1838.2656
1990.735;0.5042238;-0.12873456;1035.8055;-7714.2275;-6678.422;-2781.556;0.0;0.0;1838.2656
1990.74;0.50419396;-0.1292308;1035.8369;-7713.4185;-6677.5815;-2784.3555;0.0;0.0;1838.2656
1990.745;0.50425607;-0.13008185;1036.2764;-7713.0327;-6676.7563;-2789.9277;0.0;0.0;1838.2656
1990.75;0.50442344;-0.13211729;1037.1141;-7713.6924;-6676.578;-2802.8284;0.0;0.0;1838.2656
1990.755;0.5046697;-0.1354566;1038.2051;-7715.5537;-6677.3486;-2823.4258;0.0;0.0;1838.2656
1990.76;0.504946;-0.13996203;1039.3269;-7718.2;-6678.873;-2850.516;0.0;0.0;1838.2656
1990.765;0.5051927;-0.1460034;1040.2473;-7722.179;-6681.9316;-2885.6736;0.0;0.0;1838.2656
1990.77;0.50535977;-0.15239634;1040.7931;-7726.051;-6685.258;-2922.021;0.0;0.0;1838.2656
1990.775;0.5054195;-0.15936324;1040.8918;-7730.5967;-6689.705;-2960.6396;0.0;0.0;1838.2656
1990.78;0.50537014;-0.16593254;1040.5667;-7734.8545;-6694.288;-2996.2175;0.0;0.0;1838.2656
1990.785;0.50523037;-0.171498;1039.9135;-7738.048;-6698.1343;-3025.6035;0.0;0.0;1838.2656
1990.79;0.5050307;-0.17586152;1039.0762;-7740.544;-6701.468;-3047.993;0.0;0.0;1838.2656
1990.795;0.50481254;-0.17903572;1038.2167;-7742.1035;-6703.8867;-3063.779;0.0;0.0;1838.2656
1990.8;0.50461185;-0.18094169;1037.4764;-7742.925;-6705.448;-3072.8096;0.0;0.0;1838.2656
1990.805;0.5044599;-0.18200731;1036.958;-7743.359;-6706.401;-3077.6494;0.0;0.0;1838.2656
1990.81;0.5043711;-0.18241253;1036.6914;-7743.3506;-6706.659;-3079.3508;0.0;0.0;1838.2656
1990.815;0.50434023;-0.18249747;1036.6241;-7743.4297;-6706.8057;-3079.6848;0.0;0.0;1838.2656
1990.82;0.5043432;-0.18231669;1036.6438;-7743.3496;-6706.706;-3078.727;0.0;0.0;1838.2656
1990.825;0.5043488;-0.18214764;1036.6316;-7743.561;-6706.9297;-3077.7705;0.0;0.0;1838.2656
1990.83;0.50433344;-0.18165201;1036.5311;-7743.589;-6707.0576;-3074.8362;0.0;0.0;1838.2656
1990.835;0.5042964;-0.18098131;1036.3644;-7743.502;-6707.1377;-3070.804;0.0;0.0;1838.2656
1990.84;0.50425196;-0.17996968;1036.198;-7743.3027;-6707.1045;-3064.8923;0.0;0.0;1838.2656
1990.845;0.5042181;-0.17853348;1036.093;-7742.7;-6706.6074;-3056.762;0.0;0.0;1838.2656
1990.85;0.5042042;-0.1771455;1036.074;-7742.2603;-6706.1865;-3049.0693;0.0;0.0;1838.2656
1990.855;0.50421053;-0.17559223;1036.1199;-7741.716;-6705.5957;-3040.5952;0.0;0.0;1838.2656
1990.86;0.50422555;-0.17422412;1036.1836;-7741.4316;-6705.248;-3033.178;0.0;0.0;1838.2656
1990.865;0.5042372;-0.17298466;1036.2192;-7741.5;-6705.281;-3026.4138;0.0;0.0;1838.2656
1990.87;0.50423557;-0.17148986;1036.1749;-7741.115;-6704.9404;-3018.0815;0.0;0.0;1838.2656
1990.875;0.5042067;-0.16964749;1036.026;-7740.4546;-6704.4287;-3007.6235;0.0;0.0;1838.2656
1990.88;0.5041542;-0.16761377;1035.7715;-7739.628;-6703.8564;-2995.899;0.0;0.0;1838.2656
1990.885;0.50407565;-0.16512728;1035.4243;-7738.5537;-6703.1294;-2981.492;0.0;0.0;1838.2656
1990.89;0.5039805;-0.16213499;1035.0193;-7737.1504;-6702.131;-2964.1802;0.0;0.0;1838.2656
1990.895;0.5038771;-0.15874262;1034.592;-7735.496;-6700.9043;-2944.6174;0.0;0.0;1838.2656
1990.9;0.5037739;-0.1545813;1034.1802;-7733.16;-6698.98;-2920.8447;0.0;0.0;1838.2656
1990.905;0.503682;-0.14996926;1033.8254;-7730.424;-6696.5986;-2894.701;0.0;0.0;1838.2656
1990.91;0.50360876;-0.1450043;1033.5585;-7727.531;-6693.972;-2866.7861;0.0;0.0;1838.2656
1990.915;0.5035615;-0.13983594;1033.3997;-7724.4165;-6691.0166;-2837.966;0.0;0.0;1838.2656
1990.92;0.50354064;-0.13450563;1033.3469;-7721.107;-6687.76;-2808.465;0.0;0.0;1838.2656
1990.925;0.5035441;-0.12924033;1033.394;-7717.8896;-6684.4956;-2779.5222;0.0;0.0;1838.2656
1990.93;0.503571;-0.12409171;1033.54;-7714.598;-6681.058;-2751.4207;0.0;0.0;1838.2656
1990.935;0.5036218;-0.119422264;1033.7959;-7711.763;-6677.9673;-2726.1814;0.0;0.0;1838.2656
1990.94;0.5037016;-0.11552828;1034.1852;-7709.575;-6675.39;-2705.4854;0.0;0.0;1838.2656
1990.945;0.50381553;-0.112147;1034.7051;-7707.657;-6672.952;-2687.8782;0.0;0.0;1838.2656
1990.95;0.5039556;-0.10959101;1035.3275;-7706.423;-6671.095;-2675.027;0.0;0.0;1838.2656
1990.955;0.5041156;-0.10808159;1036.0138;-7705.828;-6669.8145;-2668.0757;0.0;0.0;1838.2656
1990.96;0.5042816;-0.107581735;1036.7043;-7706.138;-6669.4336;-2666.7002;0.0;0.0;1838.2656
1990.965;0.50443995;-0.10801036;1037.3533;-7707.028;-6669.675;-2670.3618;0.0;0.0;1838.2656
1990.97;0.50458306;-0.10944807;1037.9358;-7708.755;-6670.8193;-2679.4553;0.0;0.0;1838.2656
1990.975;0.5047072;-0.11126624;1038.4293;-7710.4067;-6671.9775;-2690.4692;0.0;0.0;1838.2656
1990.98;0.5048056;-0.114069074;1038.8159;-7712.9995;-6674.1836;-2706.6997;0.0;0.0;1838.2656
1990.985;0.5048767;-0.11726406;1039.0739;-7715.956;-6676.8823;-2724.8352;0.0;0.0;1838.2656
1990.99;0.50491166;-0.1204693;1039.1683;-7718.628;-6679.4595;-2742.7004;0.0;0.0;1838.2656
1990.995;0.50490236;-0.1236234;1039.0703;-7721.133;-6682.0625;-2759.8984;0.0;0.0;1838.2656
1991.0;0.50484365;-0.12633017;1038.7462;-7723.198;-6684.452;-2774.1777;0.0;0.0;1838.2656
1991.005;0.5047272;-0.12854004;1038.193;-7724.995;-6686.8022;-2785.258;0.0;0.0;1838.2656
1991.01;0.5045612;-0.1298912;1037.4463;-7726.035;-6688.589;-2791.216;0.0;0.0;1838.2656
1991.015;0.5043578;-0.13019718;1036.5886;-7726.2524;-6689.664;-2791.1882;0.0;0.0;1838.2656
1991.02;0.5041472;-0.12914506;1035.7501;-7725.2207;-6689.4707;-2783.709;0.0;0.0;1838.2656
1991.025;0.5039621;-0.12730163;1035.0651;-7723.7036;-6688.6387;-2772.1729;0.0;0.0;1838.2656
1991.03;0.5038315;-0.12496019;1034.6226;-7721.9526;-6687.33;-2758.3752;0.0;0.0;1838.2656
1991.035;0.5037646;-0.12209882;1034.4143;-7719.793;-6685.379;-2742.1787;0.0;0.0;1838.2656
1991.04;0.5037425;-0.11926625;1034.3544;-7717.8486;-6683.494;-2726.438;0.0;0.0;1838.2656
1991.045;0.50374126;-0.116361015;1034.3304;-7715.8916;-6681.561;-2710.3682;0.0;0.0;1838.2656
1991.05;0.5037317;-0.11344096;1034.2584;-7713.8447;-6679.5864;-2694.1206;0.0;0.0;1838.2656
1991.055;0.503706;-0.110502414;1034.1318;-7711.8643;-6677.7324;-2677.662;0.0;0.0;1838.2656
1991.06;0.503673;-0.10723927;1034.0073;-7709.3975;-6675.39;-2659.4175;0.0;0.0;1838.2656
1991.065;0.50365263;-0.103781916;1033.9597;-7706.68;-6672.7207;-2640.2556;0.0;0.0;1838.2656
1991.07;0.5036607;-0.100407146;1034.0498;-7704.176;-6670.126;-2621.8247;0.0;0.0;1838.2656
1991.075;0.5037085;-0.09749531;1034.2896;-7702.2256;-6667.936;-2606.2458;0.0;0.0;1838.2656
1991.08;0.5037865;-0.09504106;1034.6294;-7700.756;-6666.1265;-2593.3909;0.0;0.0;1838.2656
1991.085;0.5038772;-0.0931116;1034.9839;-7699.834;-6664.85;-2583.4592;0.0;0.0;1838.2656
1991.09;0.50395715;-0.091256276;1035.2583;-7698.656;-6663.3975;-2573.7764;0.0;0.0;1838.2656
1991.095;0.50400627;-0.0898358;1035.4115;-7697.942;-6662.5303;-2566.2493;0.0;0.0;1838.2656
1991.1;0.5040277;-0.088388175;1035.468;-7697.0312;-6661.5635;-2558.379;0.0;0.0;1838.2656
