time;temperature;pressure;kinetic_energy;potential_energy;total_energy;virial;msd;diffusion;volume
3050.005;0.08003024;-0.66214836;164.2938;-9764.109;-9599.815;-3980.2014;0.0;0.0;1838.2656
3050.01;0.08003984;-0.66171515;164.34047;-9763.713;-9599.372;-3977.9055;0.0;0.0;1838.2656
3050.015;0.080052085;-0.66145355;164.3999;-9763.582;-9599.182;-3976.5815;0.0;0.0;1838.2656
3050.02;0.080067806;-0.6613772;164.4733;-9763.635;-9599.161;-3976.3076;0.0;0.0;1838.2656
3050.025;0.080086574;-0.6612143;164.55579;-9763.404;-9598.849;-3975.5742;0.0;0.0;1838.2656
3050.03;0.080106445;-0.6611382;164.64366;-9763.231;-9598.588;-3975.3303;0.0;0.0;1838.2656
3050.035;0.0801276;-0.6615453;164.73526;-9763.723;-9598.987;-3977.7583;0.0;0.0;1838.2656
3050.04;0.08014901;-0.6619244;164.8273;-9763.986;-9599.159;-3980.0334;0.0;0.0;1838.2656
3050.045;0.08017007;-0.6625203;164.91728;-9764.422;-9599.505;-3983.4995;0.0;0.0;1838.2656
3050.05;0.080190234;-0.6631279;165.0021;-9764.732;-9599.73;-3987.02;0.0;0.0;1838.2656
3050.055;0.08020845;-0.6638802;165.07834;-9765.138;-9600.06;-3991.321;0.0;0.0;1838.2656
3050.06;0.08022417;-0.66486835;165.14354;-9765.797;-9600.653;-3996.9011;0.0;0.0;1838.2656
3050.065;0.08023669;-0.66588247;165.19345;-9766.445;-9601.252;-4002.5935;0.0;0.0;1838.2656
3050.07;0.08024482;-0.6668109;165.22417;-9766.762;-9601.537;-4007.7751;0.0;0.0;1838.2656
3050.075;0.08024779;-0.6679121;165.2329;-9767.436;-9602.203;-4013.8657;0.0;0.0;1838.2656
3050.08;0.080245145;-0.6689098;165.21759;-9767.88;-9602.662;-4019.337;0.0;0.0;1838.2656
3050.085;0.080236375;-0.67017144;165.17966;-9768.805;-9603.625;-4026.2188;0.0;0.0;1838.2656
3050.09;0.08022282;-0.67110604;165.1189;-9769.316;-9604.197;-4031.2515;0.0;0.0;1838.2656
3050.095;0.08020315;-0.67206115;165.03595;-9769.977;-9604.94;-4036.3525;0.0;0.0;1838.2656
3050.1;0.08017899;-0.6725879;164.93484;-9770.006;-9605.071;-4039.0554;0.0;0.0;1838.2656
3050.105;0.080150865;-0.6732545;164.81932;-9770.429;-9605.609;-4042.5005;0.0;0.0;1838.2656
3050.11;0.08012003;-0.6736121;164.69373;-9770.505;-9605.812;-4044.2214;0.0;0.0;1838.2656
3050.115;0.08008736;-0.6737551;164.56287;-9770.475;-9605.912;-4044.7485;0.0;0.0;1838.2656
3050.12;0.08005435;-0.6737498;164.43137;-9770.365;-9605.934;-4044.456;0.0;0.0;1838.2656
3050.125;0.08002175;-0.6734765;164.30612;-9770.002;-9605.696;-4042.6982;0.0;0.0;1838.2656
3050.13;0.079992086;-0.67302954;164.19148;-9769.594;-9605.402;-4040.0042;0.0;0.0;1838.2656
3050.135;0.07996497;-0.6725415;164.08786;-9769.3125;-9605.225;-4037.1055;0.0;0.0;1838.2656
3050.14;0.07994092;-0.67203915;163.99977;-9769.061;-9605.061;-4034.1592;0.0;0.0;1838.2656
3050.145;0.07992155;-0.6712644;163.93045;-9768.587;-9604.656;-4029.748;0.0;0.0;1838.2656
3050.15;0.07990675;-0.670458;163.8799;-9768.068;-9604.188;-4025.1995;0.0;0.0;1838.2656
3050.155;0.079896614;-0.6694092;163.84915;-9767.2;-9603.351;-4019.354;0.0;0.0;1838.2656
3050.16;0.07989138;-0.66826713;163.83597;-9766.264;-9602.428;-4013.0295;0.0;0.0;1838.2656
3050.165;0.07988967;-0.6672014;163.83713;-9765.479;-9601.642;-4007.1543;0.0;0.0;1838.2656
3050.17;0.07989129;-0.66629285;163.84918;-9764.868;-9601.019;-4002.168;0.0;0.0;1838.2656
3050.175;0.07989469;-0.66542596;163.86864;-9764.363;-9600.495;-3997.4263;0.0;0.0;1838.2656
3050.18;0.079899736;-0.66452444;163.89427;-9763.832;-9599.9375;-3992.5059;0.0;0.0;1838.2656
3050.185;0.07990589;-0.66392183;163.92084;-9763.713;-9599.792;-3989.2356;0.0;0.0;1838.2656
3050.19;0.07991122;-0.6631605;163.94293;-9763.258;-9599.314;-3985.0813;0.0;0.0;1838.2656
3050.195;0.07991514;-0.6624357;163.96202;-9762.922;-9598.96;-3981.1226;0.0;0.0;1838.2656
3050.2;0.07991887;-0.6614065;163.9765;-9761.943;-9597.967;-3975.4756;0.0;0.0;1838.2656
3050.205;0.07992057;-0.6607128;163.98485;-9761.538;-9597.554;-3971.6665;0.0;0.0;1838.2656
3050.21;0.07992131;-0.6598836;163.98616;-9760.941;-9596.955;-3967.0964;0.0;0.0;1838.2656
3050.215;0.079919726;-0.65927595;163.98175;-9760.654;-9596.673;-3963.7366;0.0;0.0;1838.2656
3050.22;0.07991778;-0.65833366;163.97565;-9759.773;-9595.798;-3958.5278;0.0;0.0;1838.2656
3050.225;0.07991561;-0.65758723;163.96965;-9759.298;-9595.328;-3954.3994;0.0;0.0;1838.2656
3050.23;0.07991398;-0.65671045;163.97;-9758.466;-9594.496;-3949.5647;0.0;0.0;1838.2656
3050.235;0.07991502;-0.656068;163.98248;-9758.051;-9594.068;-3946.0469;0.0;0.0;1838.2656
3050.24;0.07991951;-0.6554637;164.00974;-9757.533;-9593.523;-3942.7686;0.0;0.0;1838.2656
3050.245;0.0799278;-0.6548127;164.05151;-9757.02;-9592.968;-3939.262;0.0;0.0;1838.2656
3050.25;0.07993949;-0.65457225;164.1122;-9757.023;-9592.911;-3938.0574;0.0;0.0;1838.2656
3050.255;0.07995685;-0.65420824;164.19313;-9756.616;-9592.423;-3936.2117;0.0;0.0;1838.2656
3050.26;0.07997818;-0.65410656;164.29056;-9756.496;-9592.205;-3935.8457;0.0;0.0;1838.2656
3050.265;0.080003284;-0.65433455;164.40271;-9756.7705;-9592.368;-3937.3276;0.0;0.0;1838.2656
3050.27;0.080031276;-0.65456074;164.52524;-9756.84;-9592.314;-3938.82;0.0;0.0;1838.2656
3050.275;0.08006093;-0.65507126;164.65152;-9757.08;-9592.429;-3941.888;0.0;0.0;1838.2656
3050.28;0.080090106;-0.65585613;164.77408;-9757.66;-9592.886;-3946.4614;0.0;0.0;1838.2656
3050.285;0.08011741;-0.65675205;164.88495;-9758.16;-9593.275;-3951.624;0.0;0.0;1838.2656
3050.29;0.080140315;-0.6578393;164.97684;-9758.746;-9593.77;-3957.8037;0.0;0.0;1838.2656
3050.295;0.08015789;-0.6589524;165.04375;-9759.274;-9594.23;-3964.0762;0.0;0.0;1838.2656
3050.3;0.08016836;-0.6600569;165.08134;-9759.6875;-9594.606;-3970.2422;0.0;0.0;1838.2656
3050.305;0.08017147;-0.66158706;165.08759;-9760.692;-9595.6045;-3978.6934;0.0;0.0;1838.2656
3050.31;0.08016667;-0.66301244;165.0627;-9761.526;-9596.464;-3986.5044;0.0;0.0;1838.2656
3050.315;0.0801547;-0.66433346;165.00769;-9762.18;-9597.172;-3993.6794;0.0;0.0;1838.2656
3050.32;0.080135524;-0.665541;164.9258;-9762.762;-9597.836;-4000.1748;0.0;0.0;1838.2656
3050.325;0.0801109;-0.6667068;164.82568;-9763.325;-9598.5;-4006.404;0.0;0.0;1838.2656
3050.33;0.08008329;-0.66748273;164.71132;-9763.313;-9598.603;-4010.4543;0.0;0.0;1838.2656
3050.335;0.08005224;-0.6682185;164.58633;-9763.457;-9598.871;-4014.262;0.0;0.0;1838.2656
3050.34;0.08001998;-0.6689189;164.4607;-9763.716;-9599.255;-4017.8733;0.0;0.0;1838.2656
3050.345;0.079989135;-0.66933036;164.3453;-9763.68;-9599.334;-4019.9116;0.0;0.0;1838.2656
3050.35;0.07996234;-0.6697652;164.24432;-9763.697;-9599.453;-4022.1077;0.0;0.0;1838.2656
3050.355;0.07993884;-0.6699577;164.15837;-9763.592;-9599.434;-4022.9976;0.0;0.0;1838.2656
3050.36;0.07991974;-0.67020065;164.09431;-9763.516;-9599.421;-4024.209;0.0;0.0;1838.2656
3050.365;0.07990703;-0.67017484;164.05676;-9763.174;-9599.117;-4023.9917;0.0;0.0;1838.2656
3050.37;0.079900876;-0.67032355;164.04445;-9763.126;-9599.081;-4024.787;0.0;0.0;1838.2656
3050.375;0.07990035;-0.6702909;164.05232;-9762.744;-9598.691;-4024.6226;0.0;0.0;1838.2656
3050.38;0.07990383;-0.6704054;164.07718;-9762.514;-9598.437;-4025.304;0.0;0.0;1838.2656
3050.385;0.079911284;-0.67053723;164.1148;-9762.393;-9598.277;-4026.1062;0.0;0.0;1838.2656
3050.39;0.07992071;-0.6705301;164.16174;-9761.976;-9597.813;-4026.161;0.0;0.0;1838.2656
3050.395;0.07993238;-0.67067075;164.21222;-9761.658;-9597.446;-4027.0374;0.0;0.0;1838.2656
3050.4;0.07994327;-0.67087644;164.26204;-9761.504;-9597.242;-4028.2715;0.0;0.0;1838.2656
3050.405;0.079954356;-0.67115104;164.3078;-9761.314;-9597.007;-4029.8772;0.0;0.0;1838.2656
3050.41;0.079963125;-0.67141247;164.34685;-9761.025;-9596.679;-4031.397;0.0;0.0;1838.2656
3050.415;0.07997081;-0.6719405;164.38054;-9761.291;-9596.91;-4034.3765;0.0;0.0;1838.2656
3050.42;0.079976976;-0.6725391;164.40726;-9761.566;-9597.159;-4037.7312;0.0;0.0;1838.2656
3050.425;0.0799813;-0.67291087;164.4289;-9761.53;-9597.102;-4039.8247;0.0;0.0;1838.2656
3050.43;0.07998507;-0.67351323;164.44739;-9761.822;-9597.375;-4043.1833;0.0;0.0;1838.2656
3050.435;0.07998783;-0.67404705;164.46324;-9761.958;-9597.495;-4046.1592;0.0;0.0;1838.2656
3050.44;0.07999044;-0.67449677;164.47867;-9761.945;-9597.467;-4048.67;0.0;0.0;1838.2656
3050.445;0.07999301;-0.67506045;164.49564;-9762.295;-9597.799;-4051.8127;0.0;0.0;1838.2656
3050.45;0.07999639;-0.67551565;164.51341;-9762.401;-9597.888;-4054.3584;0.0;0.0;1838.2656
3050.455;0.07999934;-0.67614615;164.53049;-9762.754;-9598.224;-4057.8694;0.0;0.0;1838.2656
3050.46;0.08000231;-0.67671126;164.54681;-9763.07;-9598.523;-4061.0186;0.0;0.0;1838.2656
3050.465;0.08000486;-0.677173;164.56102;-9763.219;-9598.658;-4063.5938;0.0;0.0;1838.2656
3050.47;0.08000665;-0.6777075;164.57208;-9763.645;-9599.072;-4066.5635;0.0;0.0;1838.2656
3050.475;0.08000764;-0.6784713;164.57825;-9764.492;-9599.914;-4070.788;0.0;0.0;1838.2656
3050.48;0.080006994;-0.6788306;164.57642;-9764.674;-9600.098;-4072.7659;0.0;0.0;1838.2656
3050.485;0.08000404;-0.6793313;164.5655;-9765.121;-9600.556;-4075.5051;0.0;0.0;1838.2656
3050.49;0.079998866;-0.67957073;164.54448;-9765.303;-9600.758;-4076.7834;0.0;0.0;1838.2656
3050.495;0.079991005;-0.6798554;164.51114;-9765.727;-9601.216;-4078.2869;0.0;0.0;1838.2656
3050.5;0.0799799;-0.6800871;164.46436;-9766.055;-9601.59;-4079.471;0.0;0.0;1838.2656
3050.505;0.07996562;-0.68025047;164.40454;-9766.404;-9602.0;-4080.2522;0.0;0.0;1838.2656
3050.51;0.07994821;-0.680184;164.33339;-9766.547;-9602.214;-4079.7434;0.0;0.0;1838.2656
3050.515;0.07992868;-0.679788;164.25253;-9766.252;-9601.999;-4077.3977;0.0;0.0;1838.2656
3050.52;0.07990679;-0.6795311;164.16623;-9766.318;-9602.152;-4075.8083;0.0;0.0;1838.2656
3050.525;0.07988494;-0.67910784;164.08008;-9766.262;-9602.182;-4073.302;0.0;0.0;1838.2656
3050.53;0.07986345;-0.6786709;163.99666;-9766.311;-9602.313;-4070.7256;0.0;0.0;1838.2656
3050.535;0.07984324;-0.67802614;163.92477;-9766.134;-9602.209;-4067.026;0.0;0.0;1838.2656
3050.54;0.07982768;-0.67713946;163.86899;-9765.701;-9601.832;-4062.0247;0.0;0.0;1838.2656
3050.545;0.079815604;-0.67644095;163.8307;-9765.426;-9601.595;-4058.096;0.0;0.0;1838.2656
3050.55;0.07980857;-0.6756836;163.81387;-9765.275;-9601.462;-4053.8855;0.0;0.0;1838.2656
3050.555;0.07980701;-0.67492956;163.81946;-9765.012;-9601.192;-4049.7383;0.0;0.0;1838.2656
3050.56;0.07981072;-0.67409545;163.84341;-9764.603;-9600.759;-4045.1865;0.0;0.0;1838.2656
3050.565;0.07981786;-0.67326874;163.88217;-9764.066;-9600.185;-4040.7046;0.0;0.0;1838.2656
3050.57;0.079828404;-0.6726193;163.93103;-9763.766;-9599.835;-4037.221;0.0;0.0;1838.2656
3050.575;0.07984011;-0.6720702;163.98259;-9763.508;-9599.525;-4034.296;0.0;0.0;1838.2656
3050.58;0.079851575;-0.67151284;164.03146;-9763.147;-9599.116;-4031.32;0.0;0.0;1838.2656
3050.585;0.079861715;-0.6711691;164.07367;-9762.924;-9598.851;-4029.5085;0.0;0.0;1838.2656
3050.59;0.079869665;-0.670774;164.10576;-9762.6455;-9598.54;-4027.3938;0.0;0.0;1838.2656
3050.595;0.07987478;-0.6705906;164.12651;-9762.58;-9598.453;-4026.4238;0.0;0.0;1838.2656
3050.6;0.079877205;-0.67051136;164.13646;-9762.606;-9598.47;-4026.0068;0.0;0.0;1838.2656
3050.605;0.079877205;-0.670449;164.13705;-9762.658;-9598.521;-4025.6643;0.0;0.0;1838.2656
3050.61;0.07987521;-0.6704589;164.13254;-9762.766;-9598.633;-4025.7097;0.0;0.0;1838.2656
3050.615;0.07987292;-0.67044085;164.12677;-9762.767;-9598.64;-4025.5986;0.0;0.0;1838.2656
3050.62;0.07987049;-0.67035866;164.12187;-9762.634;-9598.512;-4025.1355;0.0;0.0;1838.2656
3050.625;0.07986877;-0.6703073;164.12216;-9762.506;-9598.384;-4024.8528;0.0;0.0;1838.2656
3050.63;0.07986898;-0.6702919;164.12755;-9762.432;-9598.304;-4024.7788;0.0;0.0;1838.2656
3050.635;0.07986977;-0.67041504;164.1399;-9762.57;-9598.431;-4025.4824;0.0;0.0;1838.2656
3050.64;0.07987331;-0.67053664;164.1593;-9762.506;-9598.347;-4026.192;0.0;0.0;1838.2656
3050.645;0.0798774;-0.67066586;164.1818;-9762.563;-9598.382;-4026.9497;0.0;0.0;1838.2656
3050.65;0.079882346;-0.6709573;164.20535;-9762.744;-9598.539;-4028.6042;0.0;0.0;1838.2656
3050.655;0.079886734;-0.6711565;164.22824;-9762.725;-9598.496;-4029.7485;0.0;0.0;1838.2656
3050.66;0.079891235;-0.6715167;164.2477;-9762.854;-9598.605;-4031.774;0.0;0.0;1838.2656
3050.665;0.07989376;-0.6721036;164.25992;-9763.291;-9599.031;-4035.0344;0.0;0.0;1838.2656
3050.67;0.07989468;-0.67261064;164.26299;-9763.602;-9599.339;-4037.8372;0.0;0.0;1838.2656
3050.675;0.07989276;-0.67307353;164.25795;-9763.75;-9599.492;-4040.38;0.0;0.0;1838.2656
3050.68;0.07988971;-0.67355174;164.24524;-9763.934;-9599.688;-4042.9915;0.0;0.0;1838.2656
3050.685;0.079884104;-0.6741461;164.22447;-9764.295;-9600.07;-4046.2278;0.0;0.0;1838.2656
3050.69;0.0798772;-0.6745305;164.19748;-9764.283;-9600.086;-4048.2937;0.0;0.0;1838.2656
3050.695;0.07986862;-0.6747252;164.1655;-9763.819;-9599.654;-4049.3032;0.0;0.0;1838.2656
3050.7;0.07985934;-0.6750811;164.13007;-9763.768;-9599.638;-4051.195;0.0;0.0;1838.2656
3050.705;0.07984917;-0.67548513;164.09122;-9763.764;-9599.673;-4053.3457;0.0;0.0;1838.2656
3050.71;0.07983831;-0.67574584;164.0487;-9763.635;-9599.586;-4054.6987;0.0;0.0;1838.2656
3050.715;0.07982642;-0.6761809;164.00478;-9763.744;-9599.739;-4057.01;0.0;0.0;1838.2656
3050.72;0.079814985;-0.67639136;163.9624;-9763.572;-9599.609;-4058.086;0.0;0.0;1838.2656
3050.725;0.07980405;-0.67672956;163.92303;-9763.608;-9599.686;-4059.8723;0.0;0.0;1838.2656
3050.73;0.07979414;-0.67700315;163.88824;-9763.5625;-9599.674;-4061.3115;0.0;0.0;1838.2656
3050.735;0.07978545;-0.6772027;163.85904;-9763.49;-9599.631;-4062.3535;0.0;0.0;1838.2656
3050.74;0.07977834;-0.67721486;163.83453;-9763.105;-9599.2705;-4062.3713;0.0;0.0;1838.2656
3050.745;0.07977199;-0.67736834;163.81607;-9763.023;-9599.207;-4063.181;0.0;0.0;1838.2656
3050.75;0.07976773;-0.6775699;163.8045;-9762.947;-9599.143;-4064.2695;0.0;0.0;1838.2656
3050.755;0.07976463;-0.67764395;163.79794;-9762.711;-9598.913;-4064.6648;0.0;0.0;1838.2656
3050.76;0.07976279;-0.6775819;163.79431;-9762.307;-9598.513;-4064.3152;0.0;0.0;1838.2656
3050.765;0.07976101;-0.6775546;163.7905;-9761.895;-9598.1045;-4064.157;0.0;0.0;1838.2656
3050.77;0.07975898;-0.67765665;163.78659;-9761.893;-9598.106;-4064.712;0.0;0.0;1838.2656
3050.775;0.07975723;-0.6775905;163.78258;-9761.488;-9597.706;-4064.339;0.0;0.0;1838.2656
3050.78;0.07975516;-0.6774493;163.7772;-9760.986;-9597.209;-4063.5496;0.0;0.0;1838.2656
3050.785;0.07975291;-0.677488;163.77237;-9760.809;-9597.036;-4063.7537;0.0;0.0;1838.2656
3050.79;0.07975122;-0.67724705;163.7732;-9760.224;-9596.45;-4062.4263;0.0;0.0;1838.2656
3050.795;0.07975191;-0.6771883;163.78168;-9759.904;-9596.123;-4062.1194;0.0;0.0;1838.2656
3050.8;0.07975401;-0.67728674;163.79825;-9759.83;-9596.032;-4062.6953;0.0;0.0;1838.2656
3050.805;0.07975864;-0.67734003;163.82419;-9759.752;-9595.928;-4063.0413;0.0;0.0;1838.2656
3050.81;0.07976526;-0.67724454;163.85918;-9759.371;-9595.512;-4062.5845;0.0;0.0;1838.2656
3050.815;0.07977423;-0.6773987;163.90088;-9759.306;-9595.404;-4063.5178;0.0;0.0;1838.2656
3050.82;0.07978385;-0.6775874;163.94498;-9759.269;-9595.323;-4064.647;0.0;0.0;1838.2656
3050.825;0.07979374;-0.6778043;163.98679;-9759.258;-9595.271;-4065.9265;0.0;0.0;1838.2656
3050.83;0.07980195;-0.6781873;164.02203;-9759.434;-9595.411;-4068.1094;0.0;0.0;1838.2656
3050.835;0.079808325;-0.6786405;164.04486;-9759.709;-9595.664;-4070.6543;0.0;0.0;1838.2656
3050.84;0.079810336;-0.6791257;164.05151;-9760.135;-9596.083;-4073.3435;0.0;0.0;1838.2656
3050.845;0.07980875;-0.67947817;164.04146;-9760.216;-9596.175;-4075.267;0.0;0.0;1838.2656
3050.85;0.079802625;-0.67974037;164.01175;-9760.099;-9596.087;-4076.6536;0.0;0.0;1838.2656
3050.855;0.079791665;-0.6801824;163.96703;-9760.461;-9596.494;-4079.0017;0.0;0.0;1838.2656
3050.86;0.07977851;-0.6805113;163.9148;-9760.627;-9596.712;-4080.7112;0.0;0.0;1838.2656
3050.865;0.07976436;-0.6805895;163.85962;-9760.348;-9596.488;-4081.0322;0.0;0.0;1838.2656
3050.87;0.07975008;-0.68059415;163.80908;-9760.041;-9596.232;-4080.9565;0.0;0.0;1838.2656
3050.875;0.07973866;-0.6808438;163.77197;-9760.158;-9596.387;-4082.2588;0.0;0.0;1838.2656
3050.88;0.07973119;-0.6809965;163.75317;-9760.281;-9596.528;-4083.0637;0.0;0.0;1838.2656
3050.885;0.07972893;-0.681182;163.75638;-9760.272;-9596.516;-4084.093;0.0;0.0;1838.2656
3050.89;0.07973222;-0.68123287;163.78311;-9760.096;-9596.3125;-4084.427;0.0;0.0;1838.2656
3050.895;0.07974128;-0.6813975;163.83435;-9760.015;-9596.181;-4085.4375;0.0;0.0;1838.2656
3050.9;0.07975622;-0.6818371;163.90552;-9760.316;-9596.411;-4088.004;0.0;0.0;1838.2656
3050.905;0.07977458;-0.682245;163.99045;-9760.425;-9596.435;-4090.4236;0.0;0.0;1838.2656
3050.91;0.079795726;-0.6827526;164.08183;-9760.611;-9596.529;-4093.4055;0.0;0.0;1838.2656
3050.915;0.07981674;-0.6833761;164.17114;-9760.9;-9596.7295;-4097.0225;0.0;0.0;1838.2656
3050.92;0.07983638;-0.6841101;164.25131;-9761.236;-9596.985;-4101.231;0.0;0.0;1838.2656
3050.925;0.07985252;-0.6849757;164.31656;-9761.681;-9597.364;-4106.135;0.0;0.0;1838.2656
3050.93;0.079864554;-0.68572897;164.36215;-9761.879;-9597.517;-4110.3804;0.0;0.0;1838.2656
3050.935;0.07987097;-0.6866716;164.38469;-9762.315;-9597.931;-4115.624;0.0;0.0;1838.2656
3050.94;0.07987169;-0.6877495;164.38297;-9763.068;-9598.686;-4121.565;0.0;0.0;1838.2656
3050.945;0.07986636;-0.6887467;164.35666;-9763.676;-9599.319;-4127.011;0.0;0.0;1838.2656
3050.95;0.07985529;-0.68970436;164.31017;-9764.3545;-9600.044;-4132.1997;0.0;0.0;1838.2656
3050.955;0.07984042;-0.6904998;164.24664;-9764.786;-9600.539;-4136.4595;0.0;0.0;1838.2656
3050.96;0.079821326;-0.691186;164.1705;-9765.182;-9601.011;-4140.0913;0.0;0.0;1838.2656
3050.965;0.079800665;-0.69167364;164.08853;-9765.384;-9601.295;-4142.6167;0.0;0.0;1838.2656
3050.97;0.07977909;-0.69198227;164.00455;-9765.27;-9601.265;-4144.151;0.0;0.0;1838.2656
3050.975;0.07975768;-0.69209045;163.92197;-9765.07;-9601.148;-4144.582;0.0;0.0;1838.2656
3050.98;0.079737104;-0.69221836;163.84477;-9765.031;-9601.187;-4145.1333;0.0;0.0;1838.2656
3050.985;0.07971848;-0.6922405;163.7763;-9764.84;-9601.063;-4145.118;0.0;0.0;1838.2656
3050.99;0.07970227;-0.69217294;163.71951;-9764.764;-9601.044;-4144.632;0.0;0.0;1838.2656
3050.995;0.0796894;-0.6922427;163.67497;-9764.932;-9601.257;-4144.9277;0.0;0.0;1838.2656
3051.0;0.07967907;-0.6919373;163.63852;-9764.615;-9600.977;-4143.171;0.0;0.0;1838.2656
3051.005;0.07966999;-0.69172275;163.60605;-9764.499;-9600.893;-4141.923;0.0;0.0;1838.2656
3051.01;0.079661556;-0.6915899;163.57771;-9764.65;-9601.072;-4141.1333;0.0;0.0;1838.2656
3051.015;0.07965433;-0.6911022;163.55144;-9764.234;-9600.683;-4138.391;0.0;0.0;1838.2656
3051.02;0.07964683;-0.6905125;163.5243;-9763.795;-9600.2705;-4135.0845;0.0;0.0;1838.2656
3051.025;0.07963917;-0.6898335;163.49341;-9763.292;-9599.799;-4131.2783;0.0;0.0;1838.2656
3051.03;0.07962985;-0.6891592;163.45879;-9762.865;-9599.406;-4127.4907;0.0;0.0;1838.2656
3051.035;0.079620466;-0.6884803;163.42218;-9762.535;-9599.113;-4123.6733;0.0;0.0;1838.2656
3051.04;0.079610415;-0.687581;163.38654;-9762.041;-9598.654;-4118.6426;0.0;0.0;1838.2656
3051.045;0.07960173;-0.6866876;163.35484;-9761.557;-9598.202;-4113.6523;0.0;0.0;1838.2656
3051.05;0.07959386;-0.6856194;163.32797;-9760.971;-9597.643;-4107.708;0.0;0.0;1838.2656
3051.055;0.07958784;-0.684608;163.3124;-9760.488;-9597.176;-4102.0986;0.0;0.0;1838.2656
3051.06;0.0795857;-0.6833344;163.31442;-9759.65;-9596.336;-4095.0793;0.0;0.0;1838.2656
3051.065;0.07958842;-0.6824444;163.33461;-9759.508;-9596.173;-4090.2114;0.0;0.0;1838.2656
3051.07;0.07959519;-0.6813678;163.37384;-9759.085;-9595.711;-4084.3528;0.0;0.0;1838.2656
3051.075;0.07960721;-0.6804066;163.43378;-9758.825;-9595.392;-4079.1714;0.0;0.0;1838.2656
3051.08;0.07962391;-0.67945373;163.51135;-9758.494;-9594.982;-4074.072;0.0;0.0;1838.2656
3051.085;0.07964425;-0.6783192;163.60309;-9757.789;-9594.186;-4067.9988;0.0;0.0;1838.2656
3051.09;0.07966759;-0.6777662;163.70747;-9757.943;-9594.236;-4065.158;0.0;0.0;1838.2656
3051.095;0.079693735;-0.6772383;163.82022;-9758.036;-9594.216;-4062.472;0.0;0.0;1838.2656
3051.1;0.07972073;-0.6767783;163.93599;-9758.118;-9594.183;-4060.167;0.0;0.0;1838.2656
3051.105;0.079748005;-0.67646253;164.05087;-9758.334;-9594.283;-4058.6553;0.0;0.0;1838.2656
3051.11;0.079774186;-0.67639923;164.16168;-9758.841;-9594.679;-4058.5278;0.0;0.0;1838.2656
