time;temperature;pressure;kinetic_energy;potential_energy;total_energy;virial;msd;diffusion;volume
1980.005;0.5087531;-0.025462631;1045.678;-7792.589;-6746.911;-2231.777;0.0;0.0;1838.2656
1980.01;0.50871915;-0.026249604;1045.5261;-7792.6807;-6747.1543;-2235.8135;0.0;0.0;1838.2656
1980.015;0.50867516;-0.026913501;1045.352;-7792.75;-6747.398;-2239.1267;0.0;0.0;1838.2656
1980.02;0.50863415;-0.02733212;1045.2152;-7792.6797;-6747.4644;-2241.1616;0.0;0.0;1838.2656
1980.025;0.5086104;-0.027677955;1045.1465;-7792.5225;-6747.376;-2242.9312;0.0;0.0;1838.2656
1980.03;0.5086003;-0.02793163;1045.1105;-7792.243;-6747.133;-2244.2583;0.0;0.0;1838.2656
1980.035;0.50858855;-0.027936468;1045.0304;-7791.7295;-6746.699;-2244.1248;0.0;0.0;1838.2656
1980.04;0.5085538;-0.027534213;1044.8484;-7790.691;-6745.843;-2241.5425;0.0;0.0;1838.2656
1980.045;0.5084927;-0.026997585;1044.561;-7789.7197;-6745.1587;-2238.0083;0.0;0.0;1838.2656
1980.05;0.5084105;-0.02592318;1044.2196;-7788.4062;-6744.1865;-2231.4004;0.0;0.0;1838.2656
1980.055;0.5083282;-0.0245716;1043.9099;-7786.95;-6743.04;-2223.3271;0.0;0.0;1838.2656
1980.06;0.508266;-0.022966102;1043.6938;-7785.577;-6741.8833;-2214.041;0.0;0.0;1838.2656
1980.065;0.50823146;-0.021221414;1043.5842;-7784.173;-6740.589;-2204.2002;0.0;0.0;1838.2656
1980.07;0.5082213;-0.019201135;1043.5762;-7782.351;-6738.775;-2193.0427;0.0;0.0;1838.2656
1980.075;0.5082359;-0.01728688;1043.6503;-7780.6157;-6736.9653;-2182.6343;0.0;0.0;1838.2656
1980.08;0.5082659;-0.015556037;1043.7885;-7778.988;-6735.199;-2173.3652;0.0;0.0;1838.2656
1980.085;0.50831264;-0.014164502;1044.008;-7777.628;-6733.62;-2166.1304;0.0;0.0;1838.2656
1980.09;0.50838375;-0.013422717;1044.3376;-7776.6724;-6732.335;-2162.699;0.0;0.0;1838.2656
1980.095;0.5084846;-0.013022346;1044.7971;-7775.689;-6730.8916;-2161.41;0.0;0.0;1838.2656
1980.1;0.50861835;-0.013721688;1045.3862;-7775.71;-6730.3237;-2166.4448;0.0;0.0;1838.2656
1980.105;0.5087784;-0.015565704;1046.0623;-7776.53;-6730.468;-2177.9663;0.0;0.0;1838.2656
1980.11;0.508948;-0.018513916;1046.7412;-7778.1274;-6731.386;-2195.583;0.0;0.0;1838.2656
1980.115;0.50910157;-0.022560481;1047.3124;-7780.588;-6733.2754;-2219.0413;0.0;0.0;1838.2656
1980.12;0.50921196;-0.0272618;1047.6802;-7783.2256;-6735.5454;-2245.7036;0.0;0.0;1838.2656
1980.125;0.5092626;-0.03205529;1047.8018;-7785.4175;-6737.6157;-2272.3818;0.0;0.0;1838.2656
1980.13;0.5092535;-0.03707209;1047.709;-7787.7144;-6740.0054;-2299.863;0.0;0.0;1838.2656
1980.135;0.50920326;-0.041943137;1047.4856;-7789.5566;-6742.0713;-2326.279;0.0;0.0;1838.2656
1980.14;0.50913495;-0.046765547;1047.2212;-7791.6553;-6744.434;-2352.345;0.0;0.0;1838.2656
1980.145;0.5090681;-0.05116163;1046.9838;-7793.1396;-6746.156;-2376.1135;0.0;0.0;1838.2656
1980.15;0.5090142;-0.05546092;1046.7976;-7794.719;-6747.922;-2399.451;0.0;0.0;1838.2656
1980.155;0.50897044;-0.059449114;1046.6191;-7795.9463;-6749.327;-2421.0881;0.0;0.0;1838.2656
1980.16;0.5089182;-0.06310382;1046.3934;-7796.9893;-6750.5957;-2440.7915;0.0;0.0;1838.2656
1980.165;0.5088504;-0.06650675;1046.0916;-7797.9995;-6751.908;-2458.9543;0.0;0.0;1838.2656
1980.17;0.50876266;-0.06923391;1045.7175;-7798.4736;-6752.756;-2473.246;0.0;0.0;1838.2656
1980.175;0.50866354;-0.07121533;1045.329;-7798.3457;-6753.0166;-2483.396;0.0;0.0;1838.2656
1980.18;0.50857425;-0.07266843;1045.0161;-7797.9785;-6752.9624;-2490.784;0.0;0.0;1838.2656
1980.185;0.5085172;-0.07390551;1044.8696;-7797.736;-6752.866;-2497.3132;0.0;0.0;1838.2656
1980.19;0.50851274;-0.07479762;1044.9626;-7797.2295;-6752.2666;-2502.419;0.0;0.0;1838.2656
1980.195;0.5085732;-0.07602037;1045.3088;-7797.402;-6752.093;-2509.8545;0.0;0.0;1838.2656
1980.2;0.508688;-0.07740403;1045.8413;-7797.704;-6751.863;-2518.55;0.0;0.0;1838.2656
1980.205;0.5088303;-0.07935278;1046.409;-7798.7017;-6752.2925;-2530.4326;0.0;0.0;1838.2656
1980.21;0.508951;-0.08174932;1046.8009;-7800.3066;-6753.506;-2544.4326;0.0;0.0;1838.2656
1980.215;0.50899774;-0.08415707;1046.8362;-7802.0825;-6755.246;-2557.7815;0.0;0.0;1838.2656
1980.22;0.5089405;-0.08589752;1046.4192;-7803.3174;-6756.8984;-2566.5457;0.0;0.0;1838.2656
1980.225;0.50876904;-0.08627024;1045.5527;-7803.389;-6757.8364;-2566.8684;0.0;0.0;1838.2656
1980.23;0.5085011;-0.08520428;1044.3567;-7802.4277;-6758.0713;-2558.5977;0.0;0.0;1838.2656
1980.235;0.50818145;-0.08236386;1043.0232;-7800.273;-6757.25;-2540.2664;0.0;0.0;1838.2656
1980.24;0.50786173;-0.07776356;1041.791;-7796.8604;-6755.0693;-2512.4324;0.0;0.0;1838.2656
1980.245;0.5076062;-0.07167346;1040.9175;-7792.258;-6751.3403;-2477.0996;0.0;0.0;1838.2656
1980.25;0.50747263;-0.064961374;1040.6016;-7787.495;-6746.8936;-2439.452;0.0;0.0;1838.2656
1980.255;0.50749373;-0.058497913;1040.9268;-7783.1543;-6742.2275;-2404.4575;0.0;0.0;1838.2656
1980.26;0.50766855;-0.052588124;1041.8435;-7779.05;-6737.206;-2373.6997;0.0;0.0;1838.2656
1980.265;0.50796515;-0.048690964;1043.163;-7777.128;-6733.965;-2354.8467;0.0;0.0;1838.2656
1980.27;0.50831836;-0.046581276;1044.6025;-7776.6143;-6732.0117;-2346.0913;0.0;0.0;1838.2656
1980.275;0.5086546;-0.046275977;1045.8794;-7777.462;-6731.5825;-2346.9614;0.0;0.0;1838.2656
1980.28;0.5089141;-0.04726448;1046.772;-7779.1357;-6732.364;-2354.198;0.0;0.0;1838.2656
1980.285;0.50905514;-0.04901568;1047.1615;-7781.243;-6734.0815;-2364.6345;0.0;0.0;1838.2656
1980.29;0.50906914;-0.05062154;1047.0435;-7782.8145;-6735.771;-2373.2544;0.0;0.0;1838.2656
1980.295;0.50896865;-0.051934697;1046.508;-7784.0796;-6737.5713;-2379.4255;0.0;0.0;1838.2656
1980.3;0.50878906;-0.052345663;1045.7135;-7784.6323;-6738.919;-2380.1028;0.0;0.0;1838.2656
1980.305;0.50857437;-0.051741254;1044.8425;-7784.1855;-6739.343;-2375.0276;0.0;0.0;1838.2656
1980.31;0.5083681;-0.050145358;1044.0608;-7782.9893;-6738.9287;-2364.663;0.0;0.0;1838.2656
1980.315;0.5082046;-0.047875147;1043.4755;-7781.28;-6737.804;-2350.9727;0.0;0.0;1838.2656
1980.32;0.5080977;-0.04523276;1043.1267;-7779.662;-6736.535;-2335.703;0.0;0.0;1838.2656
1980.325;0.50804913;-0.04203534;1042.989;-7777.1914;-6734.202;-2317.7944;0.0;0.0;1838.2656
1980.33;0.5080412;-0.039019495;1042.983;-7774.901;-6731.918;-2301.1506;0.0;0.0;1838.2656
1980.335;0.50805193;-0.03602719;1043.0304;-7772.672;-6729.6416;-2284.7434;0.0;0.0;1838.2656
1980.34;0.5080671;-0.03315788;1043.0979;-7770.3325;-6727.2344;-2269.0547;0.0;0.0;1838.2656
1980.345;0.50808746;-0.030582527;1043.2085;-7768.3184;-6725.11;-2255.0735;0.0;0.0;1838.2656
1980.35;0.50812465;-0.028452348;1043.4133;-7766.646;-6723.2324;-2243.7356;0.0;0.0;1838.2656
1980.355;0.50819206;-0.026670901;1043.7534;-7765.1006;-6721.347;-2234.5916;0.0;0.0;1838.2656
1980.36;0.50829273;-0.025378773;1044.2213;-7763.8916;-6719.6704;-2228.4014;0.0;0.0;1838.2656
1980.365;0.5084177;-0.0249857;1044.7645;-7763.422;-6718.657;-2227.32;0.0;0.0;1838.2656
1980.37;0.50854874;-0.025365964;1045.287;-7763.5703;-6718.283;-2230.4622;0.0;0.0;1838.2656
1980.375;0.50865775;-0.026247332;1045.6909;-7764.003;-6718.312;-2236.1306;0.0;0.0;1838.2656
1980.38;0.5087268;-0.027548816;1045.9143;-7764.662;-6718.748;-2243.7546;0.0;0.0;1838.2656
1980.385;0.50874573;-0.029037867;1045.918;-7765.628;-6719.71;-2251.9739;0.0;0.0;1838.2656
1980.39;0.50870925;-0.030297186;1045.7078;-7766.2266;-6720.5186;-2258.4983;0.0;0.0;1838.2656
1980.395;0.5086275;-0.031145087;1045.337;-7766.417;-6721.08;-2262.4329;0.0;0.0;1838.2656
1980.4;0.50851864;-0.03143084;1044.8846;-7766.2363;-6721.3516;-2263.104;0.0;0.0;1838.2656
1980.405;0.5084045;-0.031076575;1044.4473;-7765.499;-6721.052;-2260.2756;0.0;0.0;1838.2656
1980.41;0.5083098;-0.030210938;1044.1276;-7764.249;-6720.1216;-2254.8623;0.0;0.0;1838.2656
1980.415;0.50825804;-0.029215718;1043.9979;-7763.12;-6719.122;-2249.1145;0.0;0.0;1838.2656
1980.42;0.5082586;-0.028443534;1044.0848;-7762.289;-6718.204;-2245.03;0.0;0.0;1838.2656
1980.425;0.5083115;-0.027993273;1044.364;-7761.709;-6717.3447;-2243.1052;0.0;0.0;1838.2656
1980.43;0.5084026;-0.028048208;1044.7712;-7761.582;-6716.8105;-2244.2227;0.0;0.0;1838.2656
1980.435;0.50851446;-0.028645683;1045.2609;-7761.4585;-6716.1978;-2248.4968;0.0;0.0;1838.2656
1980.44;0.50864315;-0.029979918;1045.811;-7761.794;-6715.983;-2256.9553;0.0;0.0;1838.2656
1980.445;0.5087823;-0.032395262;1046.405;-7763.0737;-6716.669;-2271.4634;0.0;0.0;1838.2656
1980.45;0.50893;-0.03591828;1047.032;-7765.231;-6718.199;-2292.146;0.0;0.0;1838.2656
1980.455;0.5090818;-0.040281236;1047.6626;-7767.8867;-6720.224;-2317.468;0.0;0.0;1838.2656
1980.46;0.5092265;-0.045679577;1048.2369;-7771.2236;-6722.987;-2348.3875;0.0;0.0;1838.2656
1980.465;0.5093466;-0.051640943;1048.6984;-7774.794;-6726.0957;-2382.186;0.0;0.0;1838.2656
1980.47;0.5094338;-0.058150124;1049.0125;-7778.71;-6729.6973;-2418.711;0.0;0.0;1838.2656
1980.475;0.5094809;-0.06486848;1049.1609;-7782.5513;-6733.3906;-2456.0583;0.0;0.0;1838.2656
1980.48;0.5094873;-0.07168222;1049.1498;-7786.4775;-6737.3276;-2493.6125;0.0;0.0;1838.2656
1980.485;0.5094562;-0.07850116;1048.9733;-7790.6553;-6741.682;-2530.8645;0.0;0.0;1838.2656
1980.49;0.50938135;-0.08460096;1048.6013;-7794.0015;-6745.4004;-2563.7598;0.0;0.0;1838.2656
1980.495;0.5092544;-0.089858145;1048.0039;-7796.723;-6748.719;-2591.5571;0.0;0.0;1838.2656
1980.5;0.50906986;-0.09390277;1047.1599;-7798.61;-6751.45;-2612.1746;0.0;0.0;1838.2656
1980.505;0.5088255;-0.096656114;1046.0779;-7799.5312;-6753.453;-2625.1946;0.0;0.0;1838.2656
1980.51;0.50853133;-0.09768386;1044.8407;-7799.15;-6754.309;-2628.3882;0.0;0.0;1838.2656
1980.515;0.5082217;-0.097022176;1043.6104;-7797.565;-6753.9546;-2622.2783;0.0;0.0;1838.2656
1980.52;0.50794315;-0.09494872;1042.5776;-7795.1035;-6752.526;-2608.778;0.0;0.0;1838.2656
1980.525;0.50773966;-0.09201641;1041.9124;-7792.2134;-6750.301;-2591.2766;0.0;0.0;1838.2656
1980.53;0.5076455;-0.0885471;1041.6863;-7789.0454;-6747.3594;-2571.692;0.0;0.0;1838.2656
1980.535;0.50765496;-0.08521265;1041.8611;-7786.0103;-6744.1494;-2553.6526;0.0;0.0;1838.2656
1980.54;0.50775045;-0.08236203;1042.344;-7783.4404;-6741.0967;-2538.898;0.0;0.0;1838.2656
1980.545;0.50790364;-0.08034938;1043.02;-7781.365;-6738.345;-2529.1506;0.0;0.0;1838.2656
1980.55;0.5080868;-0.07953578;1043.8013;-7780.2026;-6736.4014;-2526.2263;0.0;0.0;1838.2656
1980.555;0.5082858;-0.079860136;1044.636;-7779.837;-6735.201;-2529.6843;0.0;0.0;1838.2656
1980.56;0.5084903;-0.081542656;1045.47;-7780.4863;-6735.0166;-2540.631;0.0;0.0;1838.2656
1980.565;0.5086843;-0.08433218;1046.2496;-7781.8105;-6735.561;-2557.5742;0.0;0.0;1838.2656
1980.57;0.508857;-0.08843783;1046.928;-7784.1616;-6737.2334;-2581.5725;0.0;0.0;1838.2656
1980.575;0.50899774;-0.093302734;1047.4529;-7786.769;-6739.3164;-2609.4514;0.0;0.0;1838.2656
1980.58;0.5090931;-0.09846749;1047.7878;-7789.3213;-6741.533;-2638.604;0.0;0.0;1838.2656
1980.585;0.50914055;-0.104240276;1047.9178;-7792.3154;-6744.3975;-2670.6997;0.0;0.0;1838.2656
1980.59;0.5091363;-0.11002097;1047.8536;-7795.1504;-6747.297;-2702.4507;0.0;0.0;1838.2656
1980.595;0.5090912;-0.11570631;1047.6348;-7797.873;-6750.2383;-2733.3662;0.0;0.0;1838.2656
1980.6;0.50901514;-0.12077724;1047.316;-7799.989;-6752.673;-2760.694;0.0;0.0;1838.2656
1980.605;0.5089262;-0.1256705;1046.9714;-7802.248;-6755.2764;-2786.99;0.0;0.0;1838.2656
1980.61;0.50884145;-0.1300003;1046.663;-7803.8076;-6757.1445;-2810.2512;0.0;0.0;1838.2656
1980.615;0.5087721;-0.13383363;1046.4221;-7805.08;-6758.658;-2830.9094;0.0;0.0;1838.2656
1980.62;0.5087206;-0.13753094;1046.2349;-7806.423;-6760.188;-2850.9248;0.0;0.0;1838.2656
1980.625;0.50867504;-0.14088011;1046.0465;-7807.613;-6761.5664;-2869.018;0.0;0.0;1838.2656
1980.63;0.50862134;-0.14365064;1045.8038;-7808.258;-6762.454;-2883.8118;0.0;0.0;1838.2656
1980.635;0.50854856;-0.14585382;1045.4731;-7808.547;-6763.0737;-2895.3005;0.0;0.0;1838.2656
1980.64;0.5084534;-0.14747307;1045.0542;-7808.5015;-6763.4473;-2903.3923;0.0;0.0;1838.2656
1980.645;0.50833946;-0.14834403;1044.5636;-7808.0176;-6763.454;-2907.2144;0.0;0.0;1838.2656
1980.65;0.5082118;-0.14844465;1044.0214;-7807.096;-6763.0747;-2906.6848;0.0;0.0;1838.2656
1980.655;0.5080745;-0.14750054;1043.4359;-7805.3555;-6761.9194;-2900.3074;0.0;0.0;1838.2656
1980.66;0.5079281;-0.1455091;1042.8237;-7802.9146;-6760.091;-2888.1006;0.0;0.0;1838.2656
1980.665;0.5077806;-0.14290278;1042.2085;-7800.3457;-6758.137;-2872.4968;0.0;0.0;1838.2656
1980.67;0.5076357;-0.13918409;1041.6313;-7796.9717;-6755.3403;-2850.8347;0.0;0.0;1838.2656
1980.675;0.5075109;-0.13477615;1041.1565;-7793.2393;-6752.083;-2825.576;0.0;0.0;1838.2656
1980.68;0.50741893;-0.12971683;1040.8381;-7789.122;-6748.284;-2797.0383;0.0;0.0;1838.2656
1980.685;0.5073725;-0.1243673;1040.7178;-7784.9766;-6744.259;-2767.296;0.0;0.0;1838.2656
1980.69;0.5073781;-0.1190037;1040.829;-7780.885;-6740.0557;-2737.9392;0.0;0.0;1838.2656
1980.695;0.5074435;-0.11412612;1041.1882;-7777.417;-6736.2285;-2711.7588;0.0;0.0;1838.2656
1980.7;0.5075662;-0.1097231;1041.7604;-7774.4023;-6732.642;-2688.6213;0.0;0.0;1838.2656
1980.705;0.50772935;-0.106188826;1042.4578;-7771.925;-6729.467;-2670.5254;0.0;0.0;1838.2656
1980.71;0.5079044;-0.10355741;1043.1663;-7770.184;-6727.0176;-2657.4307;0.0;0.0;1838.2656
1980.715;0.50806504;-0.10185856;1043.7788;-7769.243;-6725.4644;-2649.2869;0.0;0.0;1838.2656
1980.72;0.5081882;-0.100601286;1044.2217;-7768.3125;-6724.091;-2643.239;0.0;0.0;1838.2656
1980.725;0.5082643;-0.09986675;1044.476;-7767.7754;-6723.2993;-2639.6968;0.0;0.0;1838.2656
1980.73;0.50829643;-0.09936082;1044.5712;-7767.38;-6722.8086;-2637.0972;0.0;0.0;1838.2656
1980.735;0.50829774;-0.0989525;1044.5481;-7766.909;-6722.3613;-2634.799;0.0;0.0;1838.2656
1980.74;0.50827503;-0.09847211;1044.4321;-7766.4595;-6722.0273;-2631.918;0.0;0.0;1838.2656
1980.745;0.50823367;-0.09777506;1044.2401;-7765.716;-6721.4756;-2627.6897;0.0;0.0;1838.2656
1980.75;0.50817686;-0.09683437;1043.9734;-7764.8813;-6720.908;-2621.9688;0.0;0.0;1838.2656
1980.755;0.50810254;-0.09549955;1043.6433;-7763.719;-6720.076;-2613.9473;0.0;0.0;1838.2656
1980.76;0.50802;-0.0935488;1043.3032;-7761.9453;-6718.642;-2602.509;0.0;0.0;1838.2656
1980.765;0.50794715;-0.091408186;1043.0317;-7760.307;-6717.2754;-2590.1611;0.0;0.0;1838.2656
1980.77;0.50790256;-0.08878272;1042.8894;-7758.301;-6715.411;-2575.3975;0.0;0.0;1838.2656
1980.775;0.5078929;-0.0861272;1042.8792;-7756.491;-6713.6123;-2560.7324;0.0;0.0;1838.2656
1980.78;0.5079068;-0.0833231;1042.9207;-7754.586;-6711.665;-2545.3513;0.0;0.0;1838.2656
1980.785;0.50791496;-0.08042547;1042.8969;-7752.491;-6709.594;-2529.3237;0.0;0.0;1838.2656
1980.79;0.5078923;-0.077277794;1042.748;-7750.296;-6707.548;-2511.6675;0.0;0.0;1838.2656
1980.795;0.50784135;-0.07411502;1042.5359;-7748.205;-6705.669;-2493.801;0.0;0.0;1838.2656
1980.8;0.5077933;-0.070735015;1042.388;-7745.871;-6703.4834;-2474.8652;0.0;0.0;1838.2656
1980.805;0.50777894;-0.067208104;1042.4271;-7743.1895;-6700.762;-2455.4934;0.0;0.0;1838.2656
1980.81;0.5078255;-0.06433818;1042.7466;-7741.253;-6698.5063;-2440.3052;0.0;0.0;1838.2656
1980.815;0.5079469;-0.06222606;1043.3623;-7739.884;-6696.5215;-2429.8887;0.0;0.0;1838.2656
1980.82;0.50813323;-0.061266083;1044.2211;-7739.2983;-6695.077;-2426.3123;0.0;0.0;1838.2656
1980.825;0.50836456;-0.06181849;1045.2092;-7740.0645;-6694.8555;-2431.335;0.0;0.0;1838.2656
1980.83;0.508604;-0.06361597;1046.1765;-7741.4033;-6695.2266;-2443.1821;0.0;0.0;1838.2656
1980.835;0.50881505;-0.066887334;1046.9775;-7743.996;-6697.0186;-2462.8252;0.0;0.0;1838.2656
1980.84;0.50896573;-0.070679806;1047.4963;-7746.722;-6699.2256;-2484.7773;0.0;0.0;1838.2656
1980.845;0.5090356;-0.07492274;1047.6667;-7749.517;-6701.8506;-2508.517;0.0;0.0;1838.2656
1980.85;0.5090155;-0.079234906;1047.4673;-7752.438;-6704.9707;-2531.899;0.0;0.0;1838.2656
1980.855;0.5089086;-0.08285436;1046.9343;-7754.6743;-6707.74;-2550.7937;0.0;0.0;1838.2656
1980.86;0.5087332;-0.085705385;1046.1631;-7756.2783;-6710.115;-2564.9739;0.0;0.0;1838.2656
1980.865;0.5085193;-0.087454;1045.2902;-7756.932;-6711.642;-2572.8713;0.0;0.0;1838.2656
1980.87;0.50830364;-0.08799359;1044.456;-7756.603;-6712.147;-2574.179;0.0;0.0;1838.2656
1980.875;0.50811726;-0.08753045;1043.7734;-7755.5205;-6711.747;-2570.2595;0.0;0.0;1838.2656
1980.88;0.50798035;-0.086554416;1043.2922;-7754.288;-6710.996;-2563.9146;0.0;0.0;1838.2656
1980.885;0.5078938;-0.0849633;1043.0038;-7752.416;-6709.412;-2554.563;0.0;0.0;1838.2656
1980.89;0.50784934;-0.08309455;1042.8577;-7750.4434;-6707.586;-2543.9648;0.0;0.0;1838.2656
1980.895;0.5078304;-0.08110669;1042.7864;-7748.3257;-6705.539;-2532.8596;0.0;0.0;1838.2656
1980.9;0.50782156;-0.07913483;1042.7491;-7746.119;-6703.37;-2521.911;0.0;0.0;1838.2656
1980.905;0.50781965;-0.07735057;1042.7491;-7744.1104;-6701.3613;-2512.071;0.0;0.0;1838.2656
1980.91;0.50783086;-0.07562397;1042.8147;-7742.1064;-6699.292;-2502.6802;0.0;0.0;1838.2656
1980.915;0.5078626;-0.07431041;1042.9797;-7740.289;-6697.3096;-2495.7664;0.0;0.0;1838.2656
1980.92;0.5079228;-0.07314847;1043.2714;-7738.373;-6695.1016;-2489.9417;0.0;0.0;1838.2656
1980.925;0.50801665;-0.07297048;1043.7173;-7737.4644;-6693.747;-2489.852;0.0;0.0;1838.2656
1980.93;0.5081514;-0.07369895;1044.3408;-7737.206;-6692.865;-2495.1165;0.0;0.0;1838.2656
1980.935;0.5083303;-0.07575048;1045.157;-7738.131;-6692.9736;-2508.0625;0.0;0.0;1838.2656
1980.94;0.5085551;-0.079019345;1046.1511;-7739.873;-6693.7217;-2528.078;0.0;0.0;1838.2656
1980.945;0.5088147;-0.08381571;1047.2673;-7742.5967;-6695.329;-2556.7612;0.0;0.0;1838.2656
1980.95;0.50909066;-0.08998591;1048.4067;-7746.257;-6697.85;-2593.0674;0.0;0.0;1838.2656
1980.955;0.5093521;-0.09753156;1049.4354;-7750.938;-6701.5024;-2636.7375;0.0;0.0;1838.2656
1980.96;0.5095654;-0.10651027;1050.2233;-7756.821;-6706.5977;-2687.829;0.0;0.0;1838.2656
1980.965;0.50970244;-0.115806416;1050.6533;-7762.4546;-6711.8013;-2739.9556;0.0;0.0;1838.2656
1980.97;0.50973785;-0.125333;1050.655;-7768.303;-6717.6484;-2792.496;0.0;0.0;1838.2656
1980.975;0.5096667;-0.1346691;1050.2175;-7774.0957;-6723.878;-2843.1077;0.0;0.0;1838.2656
1980.98;0.5094919;-0.14283635;1049.382;-7778.875;-6729.493;-2886.4773;0.0;0.0;1838.2656
1980.985;0.50923467;-0.1496924;1048.2518;-7782.7607;-6734.509;-2922.0269;0.0;0.0;1838.2656
1980.99;0.50892556;-0.15468402;1046.9624;-7785.207;-6738.2446;-2946.9758;0.0;0.0;1838.2656
1980.995;0.5086012;-0.1577379;1045.6599;-7786.1523;-6740.492;-2961.2122;0.0;0.0;1838.2656
1981.0;0.5082939;-0.15926293;1044.4634;-7786.15;-6741.6865;-2967.2295;0.0;0.0;1838.2656
1981.005;0.50802743;-0.15899573;1043.4524;-7784.8623;-6741.41;-2963.734;0.0;0.0;1838.2656
1981.01;0.50781417;-0.15735607;1042.656;-7782.616;-6739.96;-2953.0989;0.0;0.0;1838.2656
1981.015;0.50765365;-0.15487082;1042.0691;-7780.1064;-6738.037;-2938.2192;0.0;0.0;1838.2656
1981.02;0.507542;-0.15151867;1041.6638;-7777.056;-6735.3926;-2918.9224;0.0;0.0;1838.2656
1981.025;0.5074692;-0.14771032;1041.4053;-7773.89;-6732.485;-2897.403;0.0;0.0;1838.2656
1981.03;0.5074274;-0.14357308;1041.2554;-7770.6953;-6729.44;-2874.287;0.0;0.0;1838.2656
1981.035;0.50740653;-0.13915385;1041.1779;-7767.3506;-6726.173;-2849.761;0.0;0.0;1838.2656
1981.04;0.5073982;-0.13451554;1041.1428;-7763.934;-6722.791;-2824.1116;0.0;0.0;1838.2656
1981.045;0.5073971;-0.1298889;1041.1267;-7760.5674;-6719.4404;-2798.5645;0.0;0.0;1838.2656
1981.05;0.5073972;-0.12519103;1041.1107;-7757.4277;-6716.317;-2772.6245;0.0;0.0;1838.2656
1981.055;0.50739694;-0.12041444;1041.0992;-7753.961;-6712.862;-2746.2598;0.0;0.0;1838.2656
1981.06;0.50740045;-0.11545397;1041.1245;-7750.2456;-6709.121;-2718.9543;0.0;0.0;1838.2656
1981.065;0.5074203;-0.110807754;1041.2208;-7746.878;-6705.657;-2693.524;0.0;0.0;1838.2656
1981.07;0.5074597;-0.10648214;1041.4099;-7743.867;-6702.457;-2670.047;0.0;0.0;1838.2656
1981.075;0.50752604;-0.10236407;1041.7153;-7740.958;-6699.2427;-2647.9478;0.0;0.0;1838.2656
1981.08;0.5076219;-0.09883016;1042.1392;-7738.3447;-6696.2056;-2629.3066;0.0;0.0;1838.2656
1981.085;0.50774384;-0.09609166;1042.6614;-7736.6816;-6694.0205;-2615.2488;0.0;0.0;1838.2656
1981.09;0.5078858;-0.094030134;1043.2668;-7735.4746;-6692.208;-2605.0908;0.0;0.0;1838.2656
1981.095;0.5080455;-0.09263019;1043.9309;-7734.6;-6690.669;-2598.6985;0.0;0.0;1838.2656
