time;temperature;pressure;kinetic_energy;potential_energy;total_energy;virial;msd;diffusion;volume
885.005;0.94857717;0.66652596;1952.3374;-6682.9453;-4730.608;-228.91948;0.0;0.0;1838.2656
885.01;0.94868916;0.6579786;1952.6895;-6688.9834;-4736.294;-276.76056;0.0;0.0;1838.2656
885.015;0.9486952;0.6495155;1952.5447;-6694.8584;-4742.3135;-323.1434;0.0;0.0;1838.2656
885.02;0.9485658;0.6417642;1951.8567;-6700.112;-4748.255;-364.51416;0.0;0.0;1838.2656
885.025;0.94831663;0.63567317;1950.6985;-6703.9014;-4753.203;-395.78873;0.0;0.0;1838.2656
885.03;0.94797105;0.6313149;1949.1799;-6706.3955;-4757.216;-416.78668;0.0;0.0;1838.2656
885.035;0.94755894;0.6291359;1947.4242;-6707.3496;-4759.9253;-425.29175;0.0;0.0;1838.2656
885.04;0.94710904;0.62962234;1945.5195;-6705.963;-4760.4434;-418.79962;0.0;0.0;1838.2656
885.045;0.9466349;0.63260436;1943.5328;-6702.8423;-4759.3096;-398.38116;0.0;0.0;1838.2656
885.05;0.94615847;0.6383924;1941.5948;-6697.507;-4755.912;-362.58517;0.0;0.0;1838.2656
885.055;0.94572556;0.6463898;1939.9075;-6690.664;-4750.757;-315.10657;0.0;0.0;1838.2656
885.06;0.9453872;0.6564447;1938.6373;-6682.369;-4743.732;-257.1152;0.0;0.0;1838.2656
885.065;0.94516563;0.6676023;1937.8181;-6673.422;-4735.6035;-193.94513;0.0;0.0;1838.2656
885.07;0.9450444;0.679555;1937.309;-6664.172;-4726.863;-127.010254;0.0;0.0;1838.2656
885.075;0.9449694;0.6921443;1936.9363;-6654.379;-4717.4424;-56.837635;0.0;0.0;1838.2656
885.08;0.94491756;0.70543855;1936.7288;-6643.8506;-4707.122;16.892694;0.0;0.0;1838.2656
885.085;0.94493407;0.7181036;1936.9182;-6634.282;-4697.3643;86.35911;0.0;0.0;1838.2656
885.09;0.94508636;0.72973454;1937.7728;-6625.8906;-4688.1177;148.79216;0.0;0.0;1838.2656
885.095;0.9454232;0.7396559;1939.3894;-6618.9023;-4679.5127;200.27321;0.0;0.0;1838.2656
885.1;0.94592166;0.7471806;1941.5477;-6613.643;-4672.095;237.45361;0.0;0.0;1838.2656
885.105;0.9464818;0.7518373;1943.8125;-6610.6475;-4666.835;258.60513;0.0;0.0;1838.2656
885.11;0.94699657;0.7535634;1945.7788;-6609.74;-4663.9614;264.19153;0.0;0.0;1838.2656
885.115;0.94738746;0.7532032;1947.2057;-6609.9893;-4662.7837;259.35132;0.0;0.0;1838.2656
885.12;0.9476299;0.7516335;1948.0604;-6610.812;-4662.7515;248.98534;0.0;0.0;1838.2656
885.125;0.9477477;0.74870193;1948.4823;-6612.785;-4664.3027;231.97433;0.0;0.0;1838.2656
885.13;0.9477921;0.7456232;1948.6753;-6614.454;-4665.779;214.60959;0.0;0.0;1838.2656
885.135;0.9478118;0.74207705;1948.8043;-6616.646;-4667.842;194.79573;0.0;0.0;1838.2656
885.14;0.9478291;0.7386388;1948.8628;-6618.667;-4669.804;175.7176;0.0;0.0;1838.2656
885.145;0.9478141;0.7352767;1948.6956;-6620.6074;-4671.912;157.51039;0.0;0.0;1838.2656
885.15;0.9477188;0.73301965;1948.1321;-6621.4478;-4673.3154;146.19019;0.0;0.0;1838.2656
885.155;0.94751704;0.7319137;1947.1643;-6621.3965;-4674.2324;142.02684;0.0;0.0;1838.2656
885.16;0.9472437;0.73210067;1946.0305;-6620.7954;-4674.7646;145.32526;0.0;0.0;1838.2656
885.165;0.94698554;0.73398226;1945.116;-6618.843;-4673.7266;157.53108;0.0;0.0;1838.2656
885.17;0.94683564;0.7362479;1944.717;-6617.4287;-4672.712;170.82365;0.0;0.0;1838.2656
885.175;0.9468254;0.73915976;1944.8091;-6615.71;-4670.901;186.69777;0.0;0.0;1838.2656
885.18;0.9468956;0.74190754;1945.0837;-6614.212;-4669.128;201.3018;0.0;0.0;1838.2656
885.185;0.94695055;0.74493784;1945.171;-6612.5566;-4667.3857;217.83878;0.0;0.0;1838.2656
885.19;0.94692016;0.7484182;1944.8969;-6610.419;-4665.522;237.58084;0.0;0.0;1838.2656
885.195;0.94680715;0.75230885;1944.405;-6608.167;-4663.7617;260.02054;0.0;0.0;1838.2656
885.2;0.9466916;0.7567716;1944.082;-6605.536;-4661.454;285.27762;0.0;0.0;1838.2656
885.205;0.9466841;0.76098335;1944.3542;-6603.316;-4658.962;307.96005;0.0;0.0;1838.2656
885.21;0.946868;0.7640394;1945.4286;-6602.198;-4656.7695;322.66476;0.0;0.0;1838.2656
885.215;0.9472356;0.76526755;1947.0759;-6602.5713;-4655.495;326.1433;0.0;0.0;1838.2656
885.22;0.94765586;0.7642191;1948.6343;-6604.6895;-4656.055;317.24454;0.0;0.0;1838.2656
885.225;0.94793886;0.7616627;1949.4437;-6607.8037;-4658.36;301.5279;0.0;0.0;1838.2656
885.23;0.9479824;0.758879;1949.304;-6610.552;-4661.248;286.45578;0.0;0.0;1838.2656
885.235;0.94782305;0.7567113;1948.4946;-6612.246;-4663.7515;276.1199;0.0;0.0;1838.2656
885.24;0.9475755;0.755171;1947.5227;-6613.449;-4665.927;269.56927;0.0;0.0;1838.2656
885.245;0.9473707;0.75505054;1946.8772;-6612.911;-4666.034;270.196;0.0;0.0;1838.2656
885.25;0.94730633;0.7545496;1946.8772;-6613.145;-4666.2676;267.43356;0.0;0.0;1838.2656
885.255;0.9474229;0.75320506;1947.6155;-6614.0957;-4666.4805;258.54196;0.0;0.0;1838.2656
885.26;0.9477067;0.7504781;1948.957;-6616.324;-4667.367;240.82013;0.0;0.0;1838.2656
885.265;0.9480955;0.7455599;1950.6288;-6620.3564;-4669.7275;210.35373;0.0;0.0;1838.2656
885.27;0.94850886;0.7385368;1952.2814;-6626.134;-4673.8525;168.31772;0.0;0.0;1838.2656
885.275;0.94884926;0.72984713;1953.4482;-6633.194;-4679.7456;118.06232;0.0;0.0;1838.2656
885.28;0.94899267;0.72060406;1953.6978;-6640.43;-4686.7324;66.58943;0.0;0.0;1838.2656
885.285;0.948877;0.71211594;1952.9913;-6646.5806;-4693.5894;21.192024;0.0;0.0;1838.2656
885.29;0.9485785;0.70496;1951.7317;-6651.751;-4700.0195;-15.752203;0.0;0.0;1838.2656
885.295;0.9482264;0.699772;1950.4164;-6655.149;-4704.7324;-41.73229;0.0;0.0;1838.2656
885.3;0.94792455;0.69601625;1949.3263;-6657.5527;-4708.2266;-60.264496;0.0;0.0;1838.2656
885.305;0.94769156;0.69359916;1948.4536;-6659.191;-4710.7373;-71.848656;0.0;0.0;1838.2656
885.31;0.9474988;0.6922633;1947.6725;-6660.24;-4712.568;-77.6533;0.0;0.0;1838.2656
885.315;0.9473103;0.6920559;1946.8508;-6660.5957;-4713.745;-77.15412;0.0;0.0;1838.2656
885.32;0.9470992;0.69320416;1945.9219;-6659.922;-4714.0;-68.96372;0.0;0.0;1838.2656
885.325;0.94686514;0.6956175;1944.918;-6658.506;-4713.588;-53.64664;0.0;0.0;1838.2656
885.33;0.9466256;0.6996223;1943.9385;-6655.7695;-4711.831;-29.602213;0.0;0.0;1838.2656
885.335;0.9464105;0.70481646;1943.0767;-6652.263;-4709.1865;0.76624733;0.0;0.0;1838.2656
885.34;0.94623107;0.7109715;1942.3505;-6648.268;-4705.9175;36.16218;0.0;0.0;1838.2656
885.345;0.94608176;0.7183871;1941.7102;-6643.092;-4701.382;78.33856;0.0;0.0;1838.2656
885.35;0.9459423;0.7261939;1941.0854;-6637.8135;-4696.728;122.640915;0.0;0.0;1838.2656
885.355;0.94580233;0.73492974;1940.4956;-6631.5933;-4691.0977;171.99701;0.0;0.0;1838.2656
885.36;0.94569093;0.7439954;1940.0898;-6625.1465;-4685.0566;222.80405;0.0;0.0;1838.2656
885.365;0.9456554;0.7531483;1940.1042;-6618.537;-4678.4326;273.2516;0.0;0.0;1838.2656
885.37;0.94575655;0.76157665;1940.6636;-6612.34;-4671.6763;318.61346;0.0;0.0;1838.2656
885.375;0.9459788;0.7683681;1941.6329;-6607.7876;-4666.155;354.12842;0.0;0.0;1838.2656
885.38;0.9462626;0.7737849;1942.7263;-6603.942;-4661.216;381.8138;0.0;0.0;1838.2656
885.385;0.9465322;0.7777977;1943.7109;-6600.8696;-4657.1587;401.97446;0.0;0.0;1838.2656
885.39;0.9467618;0.7802131;1944.5986;-6599.008;-4654.409;413.51944;0.0;0.0;1838.2656
885.395;0.9469905;0.7809921;1945.5554;-6598.4844;-4652.9287;415.90195;0.0;0.0;1838.2656
885.4;0.9472588;0.78046125;1946.7708;-6598.62;-4651.8496;410.5438;0.0;0.0;1838.2656
885.405;0.9476103;0.77791274;1948.3364;-6600.41;-4652.0737;393.35782;0.0;0.0;1838.2656
885.41;0.9480372;0.77306104;1950.1833;-6604.0;-4653.8164;362.9078;0.0;0.0;1838.2656
885.415;0.9485037;0.76584107;1952.0933;-6609.4155;-4657.3223;319.2714;0.0;0.0;1838.2656
885.42;0.94892806;0.7563773;1953.6453;-6616.6343;-4662.9893;263.9764;0.0;0.0;1838.2656
885.425;0.94918305;0.74604875;1954.3228;-6624.157;-4669.8345;205.66183;0.0;0.0;1838.2656
885.43;0.9491617;0.7357533;1953.8551;-6631.582;-4677.727;149.81973;0.0;0.0;1838.2656
885.435;0.94886726;0.72717935;1952.4341;-6637.4224;-4684.9883;105.378174;0.0;0.0;1838.2656
885.44;0.9484092;0.72072124;1950.5338;-6641.714;-4691.18;73.563774;0.0;0.0;1838.2656
885.445;0.9479075;0.71713537;1948.5818;-6643.8643;-4695.282;57.692184;0.0;0.0;1838.2656
885.45;0.9474422;0.71612483;1946.7927;-6644.01;-4697.217;55.69762;0.0;0.0;1838.2656
885.455;0.94702905;0.7173689;1945.21;-6642.7637;-4697.5537;65.72394;0.0;0.0;1838.2656
885.46;0.94667363;0.7206828;1943.859;-6640.118;-4696.2593;86.70139;0.0;0.0;1838.2656
885.465;0.9463832;0.7256629;1942.7874;-6636.2876;-4693.5;116.308784;0.0;0.0;1838.2656
885.47;0.9461716;0.73156226;1942.0527;-6632.244;-4690.1914;150.31187;0.0;0.0;1838.2656
885.475;0.94604933;0.7385298;1941.6499;-6627.407;-4685.7573;189.54216;0.0;0.0;1838.2656
885.48;0.94599736;0.74585253;1941.494;-6622.5723;-4681.078;230.2372;0.0;0.0;1838.2656
885.485;0.94599164;0.7536827;1941.4849;-6617.0444;-4675.5596;273.43723;0.0;0.0;1838.2656
885.49;0.9460115;0.7611083;1941.5883;-6612.2227;-4670.6343;314.18115;0.0;0.0;1838.2656
885.495;0.94606817;0.76833475;1941.9209;-6607.5977;-4665.677;353.3681;0.0;0.0;1838.2656
885.5;0.94620615;0.7746811;1942.6003;-6603.9043;-4661.3037;387.00806;0.0;0.0;1838.2656
885.505;0.9464274;0.7800307;1943.5691;-6600.8203;-4657.251;414.57275;0.0;0.0;1838.2656
885.51;0.9466863;0.7842126;1944.5509;-6598.666;-4654.115;435.67142;0.0;0.0;1838.2656
885.515;0.94689417;0.78720725;1945.2888;-6597.3496;-4652.0605;450.71042;0.0;0.0;1838.2656
885.52;0.9470337;0.78926104;1945.8726;-6596.877;-4651.0044;460.86935;0.0;0.0;1838.2656
885.525;0.9471826;0.79020137;1946.6959;-6597.227;-4650.5312;464.40805;0.0;0.0;1838.2656
885.53;0.94744974;0.78974664;1948.0568;-6598.579;-4650.5225;459.17868;0.0;0.0;1838.2656
885.535;0.9478476;0.7871151;1949.8118;-6601.8584;-4652.047;441.15643;0.0;0.0;1838.2656
885.54;0.9482747;0.78249407;1951.4617;-6606.575;-4655.1133;412.3724;0.0;0.0;1838.2656
885.545;0.9485853;0.77602684;1952.4144;-6612.66;-4660.2456;374.8015;0.0;0.0;1838.2656
885.55;0.9486553;0.76941484;1952.3527;-6618.659;-4666.3066;338.4612;0.0;0.0;1838.2656
885.555;0.94847924;0.76333004;1951.3768;-6624.0625;-4672.6855;306.8566;0.0;0.0;1838.2656
885.56;0.94812745;0.75931585;1949.8195;-6627.3506;-4677.5312;287.8336;0.0;0.0;1838.2656
885.565;0.94769585;0.75721216;1948.0488;-6629.3477;-4681.299;279.77374;0.0;0.0;1838.2656
885.57;0.9472647;0.75748384;1946.3583;-6629.365;-4683.007;284.65298;0.0;0.0;1838.2656
885.575;0.94689137;0.7595645;1944.9509;-6627.8896;-4682.9385;298.94202;0.0;0.0;1838.2656
885.58;0.94661325;0.7631537;1944.0024;-6625.218;-4681.2153;320.63248;0.0;0.0;1838.2656
885.585;0.946477;0.7670725;1943.7139;-6622.6245;-4678.9106;342.82135;0.0;0.0;1838.2656
885.59;0.94652325;0.77081364;1944.2041;-6620.05;-4675.8457;362.47247;0.0;0.0;1838.2656
885.595;0.9467554;0.7729959;1945.3842;-6619.284;-4673.9;372.1471;0.0;0.0;1838.2656
885.6;0.9471153;0.7732695;1946.9905;-6619.8887;-4672.8984;370.4432;0.0;0.0;1838.2656
885.605;0.9475269;0.7712945;1948.6584;-6622.466;-4673.8076;356.21545;0.0;0.0;1838.2656
885.61;0.9478882;0.7677917;1949.9836;-6625.91;-4675.927;334.24777;0.0;0.0;1838.2656
885.615;0.94811124;0.76301837;1950.5935;-6630.4814;-4679.8877;306.70435;0.0;0.0;1838.2656
885.62;0.94811326;0.758452;1950.2681;-6634.383;-4684.1147;282.17267;0.0;0.0;1838.2656
885.625;0.94788957;0.75485617;1949.0657;-6637.4946;-4688.4287;264.74707;0.0;0.0;1838.2656
885.63;0.94748795;0.75349903;1947.2827;-6638.6133;-4691.3306;260.8288;0.0;0.0;1838.2656
885.635;0.9470138;0.75458974;1945.3413;-6637.4795;-4692.138;270.7264;0.0;0.0;1838.2656
885.64;0.9465641;0.75786465;1943.6138;-6634.829;-4691.2153;292.24225;0.0;0.0;1838.2656
885.645;0.94621617;0.76264447;1942.3511;-6631.1494;-4688.7983;321.12717;0.0;0.0;1838.2656
885.65;0.9460059;0.76874894;1941.6918;-6626.2812;-4684.5894;356.11078;0.0;0.0;1838.2656
885.655;0.94596106;0.7747649;1941.766;-6621.6245;-4679.8584;389.13904;0.0;0.0;1838.2656
885.66;0.94611317;0.77976424;1942.7231;-6617.8633;-4675.14;414.7951;0.0;0.0;1838.2656
885.665;0.9464966;0.7824093;1944.6477;-6616.132;-4671.4844;425.53296;0.0;0.0;1838.2656
885.67;0.9471002;0.7817229;1947.3655;-6617.1406;-4669.7754;416.31192;0.0;0.0;1838.2656
885.675;0.9478277;0.7771854;1950.3469;-6621.0215;-4670.675;385.32556;0.0;0.0;1838.2656
885.68;0.94850534;0.7689785;1952.867;-6627.7188;-4674.8516;335.0261;0.0;0.0;1838.2656
885.685;0.94897026;0.75812745;1954.4087;-6636.037;-4681.6284;272.1015;0.0;0.0;1838.2656
885.69;0.94915944;0.74632627;1954.8378;-6644.5127;-4689.675;206.1621;0.0;0.0;1838.2656
885.695;0.9490896;0.7342384;1954.2554;-6653.2363;-4698.981;140.66492;0.0;0.0;1838.2656
885.7;0.9488022;0.7239924;1952.8368;-6659.5986;-4706.7617;86.99744;0.0;0.0;1838.2656
885.705;0.94834554;0.71592385;1950.7463;-6664.1113;-4713.365;46.682037;0.0;0.0;1838.2656
885.71;0.94775414;0.71082735;1948.1672;-6666.1094;-4717.9424;23.73383;0.0;0.0;1838.2656
885.715;0.9470854;0.7090965;1945.3414;-6665.197;-4719.8555;19.840174;0.0;0.0;1838.2656
885.72;0.9464025;0.71073025;1942.5884;-6661.528;-4718.9395;34.356266;0.0;0.0;1838.2656
885.725;0.94580173;0.7154452;1940.366;-6655.13;-4714.7637;64.8031;0.0;0.0;1838.2656
885.73;0.94540775;0.7216405;1939.1819;-6648.1157;-4708.9336;101.33726;0.0;0.0;1838.2656
885.735;0.94532835;0.7279502;1939.3347;-6641.1235;-4701.789;135.82823;0.0;0.0;1838.2656
885.74;0.9455709;0.7327224;1940.6727;-6635.76;-4695.087;159.4699;0.0;0.0;1838.2656
885.745;0.9460328;0.73525625;1942.7407;-6631.801;-4689.06;169.30746;0.0;0.0;1838.2656
885.75;0.9465995;0.73436666;1945.1665;-6630.832;-4685.6655;159.5498;0.0;0.0;1838.2656
885.755;0.9472152;0.72995263;1947.7759;-6632.6533;-4684.8774;129.9889;0.0;0.0;1838.2656
885.76;0.9478538;0.72233456;1950.4138;-6636.6616;-4686.248;82.70071;0.0;0.0;1838.2656
885.765;0.94846106;0.7117899;1952.8151;-6642.7705;-4689.9556;19.746492;0.0;0.0;1838.2656
885.77;0.9489615;0.6979903;1954.6494;-6651.867;-4697.218;-60.02406;0.0;0.0;1838.2656
885.775;0.949277;0.68346936;1955.6956;-6660.757;-4705.0615;-142.19647;0.0;0.0;1838.2656
885.78;0.9493896;0.6682477;1955.9075;-6670.3643;-4714.457;-226.56447;0.0;0.0;1838.2656
885.785;0.949302;0.65352184;1955.3203;-6679.9297;-4724.6094;-306.6004;0.0;0.0;1838.2656
885.79;0.9490292;0.6407781;1953.9666;-6687.8594;-4733.8926;-374.17194;0.0;0.0;1838.2656
885.795;0.94857234;0.63085264;1951.8228;-6693.4927;-4741.67;-424.62143;0.0;0.0;1838.2656
885.8;0.9479223;0.6247669;1948.8889;-6696.4014;-4747.5127;-452.3154;0.0;0.0;1838.2656
885.805;0.9471008;0.6236022;1945.3359;-6695.315;-4749.979;-451.6323;0.0;0.0;1838.2656
885.81;0.94618165;0.62755173;1941.551;-6690.2627;-4748.712;-422.2818;0.0;0.0;1838.2656
885.815;0.94529027;0.63614625;1938.1111;-6681.9116;-4743.801;-368.0047;0.0;0.0;1838.2656
885.82;0.94458425;0.6481975;1935.6731;-6671.657;-4735.9844;-296.6688;0.0;0.0;1838.2656
885.825;0.94421804;0.6621235;1934.7653;-6660.2246;-4725.4595;-218.05382;0.0;0.0;1838.2656
885.83;0.9442728;0.67597437;1935.5806;-6649.2217;-4713.641;-143.2998;0.0;0.0;1838.2656
885.835;0.94473165;0.68718225;1937.8505;-6641.093;-4703.242;-86.03036;0.0;0.0;1838.2656
885.84;0.9454543;0.6947179;1940.9324;-6636.076;-4695.1436;-50.636684;0.0;0.0;1838.2656
885.845;0.94626206;0.6984108;1944.1504;-6633.9414;-4689.791;-36.70713;0.0;0.0;1838.2656
885.85;0.9470139;0.6981064;1947.0281;-6634.796;-4687.7676;-44.14127;0.0;0.0;1838.2656
885.855;0.94762486;0.69489586;1949.2036;-6637.616;-4688.4126;-66.19776;0.0;0.0;1838.2656
885.86;0.9480068;0.68941325;1950.3457;-6641.989;-4691.643;-98.71722;0.0;0.0;1838.2656
885.865;0.94809484;0.683496;1950.2649;-6646.325;-4696.0605;-131.18808;0.0;0.0;1838.2656
885.87;0.9478901;0.67845774;1949.1755;-6649.6953;-4700.5195;-156.79459;0.0;0.0;1838.2656
885.875;0.94752246;0.6751728;1947.734;-6651.508;-4703.774;-172.02702;0.0;0.0;1838.2656
885.88;0.9471881;0.6736584;1946.6702;-6651.907;-4705.2373;-178.2513;0.0;0.0;1838.2656
885.885;0.9470272;0.67260116;1946.3494;-6652.589;-4706.2393;-183.4399;0.0;0.0;1838.2656
885.89;0.9470463;0.67192405;1946.5509;-6652.999;-4706.448;-187.57724;0.0;0.0;1838.2656
885.895;0.9471119;0.6712698;1946.6709;-6653.7764;-4707.1055;-191.42522;0.0;0.0;1838.2656
885.9;0.9470682;0.6713879;1946.2073;-6653.622;-4707.415;-189.8467;0.0;0.0;1838.2656
885.905;0.94685197;0.6724096;1945.1172;-6653.001;-4707.884;-182.0322;0.0;0.0;1838.2656
885.91;0.94653213;0.67535245;1943.8419;-6651.0024;-4707.1606;-163.25232;0.0;0.0;1838.2656
885.915;0.94626385;0.6794557;1943.0005;-6648.282;-4705.2817;-138.9407;0.0;0.0;1838.2656
885.92;0.9461741;0.6843089;1942.9294;-6645.1807;-4702.251;-112.03445;0.0;0.0;1838.2656
885.925;0.9462715;0.68902487;1943.4542;-6642.3965;-4698.9424;-87.07638;0.0;0.0;1838.2656
885.93;0.94644374;0.6929888;1944.1024;-6640.4043;-4696.302;-66.51223;0.0;0.0;1838.2656
885.935;0.946581;0.6965016;1944.5403;-6638.803;-4694.2627;-48.01569;0.0;0.0;1838.2656
885.94;0.94664687;0.69955695;1944.7192;-6637.5835;-4692.8643;-31.523956;0.0;0.0;1838.2656
885.945;0.94665956;0.7026936;1944.6838;-6636.3066;-4691.623;-14.155436;0.0;0.0;1838.2656
885.95;0.9466223;0.7061186;1944.4152;-6634.644;-4690.229;5.270135;0.0;0.0;1838.2656
885.955;0.946523;0.7102086;1943.9293;-6632.173;-4688.2437;28.797588;0.0;0.0;1838.2656
885.96;0.9463944;0.7146695;1943.4468;-6629.428;-4685.9814;54.363758;0.0;0.0;1838.2656
885.965;0.94632125;0.719163;1943.3601;-6626.778;-4683.418;79.317665;0.0;0.0;1838.2656
885.97;0.94640696;0.7228153;1944.0442;-6624.878;-4680.834;98.091194;0.0;0.0;1838.2656
885.975;0.94671315;0.7246394;1945.5989;-6624.628;-4679.0293;105.041504;0.0;0.0;1838.2656
885.98;0.9472062;0.7238838;1947.7411;-6626.2637;-4678.5225;96.59015;0.0;0.0;1838.2656
885.985;0.9477678;0.7199547;1949.969;-6630.2773;-4680.3086;70.46605;0.0;0.0;1838.2656
885.99;0.9482719;0.71322495;1951.8074;-6636.3643;-4684.5566;29.676092;0.0;0.0;1838.2656
885.995;0.94862497;0.7047562;1952.9978;-6643.331;-4690.333;-19.408348;0.0;0.0;1838.2656
886.0;0.948805;0.69507337;1953.4932;-6650.9165;-4697.4233;-73.79784;0.0;0.0;1838.2656
886.005;0.948813;0.6854026;1953.2968;-6658.0977;-4704.801;-126.73743;0.0;0.0;1838.2656
886.01;0.94865406;0.6764402;1952.5012;-6664.3213;-4711.8203;-174.57233;0.0;0.0;1838.2656
886.015;0.9483803;0.6684099;1951.3711;-6670.0576;-4718.6865;-216.59737;0.0;0.0;1838.2656
886.02;0.94807005;0.662096;1950.1738;-6674.3804;-4724.2065;-249.02246;0.0;0.0;1838.2656
886.025;0.9477661;0.6574016;1948.977;-6677.2754;-4728.2983;-272.51776;0.0;0.0;1838.2656
886.03;0.9474521;0.6545313;1947.7146;-6678.8145;-4731.0996;-285.8221;0.0;0.0;1838.2656
886.035;0.9471215;0.6532247;1946.4248;-6679.311;-4732.886;-290.44812;0.0;0.0;1838.2656
886.04;0.94680923;0.6537306;1945.3109;-6678.4243;-4733.1133;-285.43066;0.0;0.0;1838.2656
886.045;0.946582;0.6552897;1944.5834;-6677.167;-4732.5835;-275.3772;0.0;0.0;1838.2656
886.05;0.94646555;0.6576114;1944.2579;-6675.543;-4731.285;-261.92233;0.0;0.0;1838.2656
886.055;0.9464309;0.66033036;1944.1411;-6673.6235;-4729.4824;-246.69444;0.0;0.0;1838.2656
886.06;0.9464104;0.66352844;1943.9885;-6671.1387;-4727.1504;-228.75244;0.0;0.0;1838.2656
886.065;0.9463614;0.6670032;1943.7241;-6668.67;-4724.946;-209.06116;0.0;0.0;1838.2656
886.07;0.94630355;0.67047304;1943.5328;-6666.414;-4722.8813;-189.54305;0.0;0.0;1838.2656
886.075;0.94631374;0.6739032;1943.7583;-6664.2173;-4720.459;-171.07735;0.0;0.0;1838.2656
886.08;0.9464738;0.6767201;1944.6447;-6662.4434;-4717.799;-157.31558;0.0;0.0;1838.2656
886.085;0.9467986;0.67762953;1946.088;-6662.4893;-4716.4014;-155.18675;0.0;0.0;1838.2656
886.09;0.94720316;0.6763829;1947.6787;-6664.1836;-4716.505;-165.243;0.0;0.0;1838.2656
886.095;0.9475725;0.67343843;1949.061;-6667.0;-4717.939;-184.246;0.0;0.0;1838.2656
886.1;0.9478675;0.6686829;1950.2028;-6671.201;-4720.9985;-212.75525;0.0;0.0;1838.2656
886.105;0.948121;0.66238797;1951.2715;-6676.612;-4725.3403;-249.60794;0.0;0.0;1838.2656
886.11;0.94837314;0.65483207;1952.2659;-6682.7847;-4730.5186;-293.2659;0.0;0.0;1838.2656
886.115;0.9485631;0.64634;1952.7883;-6689.6045;-4736.8164;-341.14285;0.0;0.0;1838.2656
886.12;0.94855285;0.6378723;1952.301;-6696.2236;-4743.923;-386.866;0.0;0.0;1838.2656
886.125;0.9482424;0.6313169;1950.5911;-6700.637;-4750.046;-419.59756;0.0;0.0;1838.2656
886.13;0.9476616;0.62720066;1947.9829;-6703.1533;-4755.1704;-437.08148;0.0;0.0;1838.2656
886.135;0.9469575;0.62662715;1945.1155;-6702.3716;-4757.256;-434.50955;0.0;0.0;1838.2656
886.14;0.9462938;0.6290177;1942.6586;-6699.6113;-4756.9526;-416.41214;0.0;0.0;1838.2656
