time;temperature;pressure;kinetic_energy;potential_energy;total_energy;virial;msd;diffusion;volume
1575.005;0.6708512;-0.061278135;1379.0483;-7018.424;-5639.3755;-3096.0332;0.0;0.0;1838.2656
1575.01;0.6706405;-0.058784455;1378.1812;-7017.739;-5639.5576;-3080.5466;0.0;0.0;1838.2656
1575.015;0.6704208;-0.054815736;1377.301;-7015.882;-5638.581;-3056.8997;0.0;0.0;1838.2656
1575.02;0.670213;-0.05008865;1376.483;-7013.922;-5637.439;-3029.1948;0.0;0.0;1838.2656
1575.025;0.6700306;-0.04411592;1375.7732;-7011.007;-5635.2334;-2994.8367;0.0;0.0;1838.2656
1575.03;0.6698815;-0.03702661;1375.2102;-7007.15;-5631.9395;-2954.6147;0.0;0.0;1838.2656
1575.035;0.66977483;-0.029289618;1374.8263;-7002.8115;-5627.9854;-2911.179;0.0;0.0;1838.2656
1575.04;0.6697133;-0.021313308;1374.6096;-6998.681;-5624.0713;-2866.7578;0.0;0.0;1838.2656
1575.045;0.6696849;-0.013142096;1374.4875;-6994.408;-5619.921;-2821.4512;0.0;0.0;1838.2656
1575.05;0.66966265;-0.0046972795;1374.3418;-6989.9453;-5615.6035;-2774.5881;0.0;0.0;1838.2656
1575.055;0.66961735;0.0039718878;1374.0701;-6985.2334;-5611.163;-2726.236;0.0;0.0;1838.2656
1575.06;0.6695328;0.012763327;1373.6521;-6980.588;-5606.9355;-2676.917;0.0;0.0;1838.2656
1575.065;0.6694208;0.021982027;1373.1727;-6975.587;-5602.414;-2625.1191;0.0;0.0;1838.2656
1575.07;0.669315;0.03189137;1372.7937;-6969.5283;-5596.7344;-2569.713;0.0;0.0;1838.2656
1575.075;0.6692623;0.041990384;1372.7014;-6963.0615;-5590.3604;-2513.8345;0.0;0.0;1838.2656
1575.08;0.66930276;0.051546596;1373.0264;-6956.92;-5583.8936;-2461.7837;0.0;0.0;1838.2656
1575.085;0.6694532;0.059796162;1373.7825;-6952.0254;-5578.243;-2417.8013;0.0;0.0;1838.2656
1575.09;0.6696973;0.06656001;1374.8488;-6948.0557;-5573.207;-2382.6326;0.0;0.0;1838.2656
1575.095;0.669988;0.07148321;1376.0552;-6945.4707;-5569.4155;-2357.895;0.0;0.0;1838.2656
1575.1;0.6702907;0.07463157;1377.2655;-6943.8643;-5566.5986;-2342.9531;0.0;0.0;1838.2656
1575.105;0.67057663;0.075900726;1378.3992;-6943.5625;-5565.163;-2338.2212;0.0;0.0;1838.2656
1575.11;0.67083776;0.075635366;1379.4207;-6944.2;-5564.7793;-2341.7275;0.0;0.0;1838.2656
1575.115;0.67106545;0.07382949;1380.3098;-6945.8936;-5565.584;-2353.465;0.0;0.0;1838.2656
1575.12;0.67125756;0.07116796;1381.0251;-6947.7944;-5566.7695;-2369.5735;0.0;0.0;1838.2656
1575.125;0.67139494;0.06736204;1381.5002;-6950.5557;-5569.0557;-2391.5125;0.0;0.0;1838.2656
1575.13;0.6714663;0.06317736;1381.7034;-6953.5547;-5571.8516;-2414.9963;0.0;0.0;1838.2656
1575.135;0.6714707;0.058901604;1381.6394;-6956.4663;-5574.827;-2438.4485;0.0;0.0;1838.2656
1575.14;0.6714125;0.055053353;1381.341;-6958.765;-5577.4243;-2459.0737;0.0;0.0;1838.2656
1575.145;0.6713047;0.05144908;1380.8486;-6961.0576;-5580.209;-2477.966;0.0;0.0;1838.2656
1575.15;0.67115504;0.048689816;1380.1962;-6962.5693;-5582.373;-2491.878;0.0;0.0;1838.2656
1575.155;0.670974;0.047151234;1379.437;-6962.763;-5583.326;-2498.8445;0.0;0.0;1838.2656
1575.16;0.6707784;0.04636944;1378.6362;-6962.617;-5583.981;-2501.5544;0.0;0.0;1838.2656
1575.165;0.67058426;0.0463092;1377.8678;-6962.1846;-5584.317;-2500.3499;0.0;0.0;1838.2656
1575.17;0.670413;0.04734147;1377.2341;-6960.5166;-5583.282;-2493.3896;0.0;0.0;1838.2656
1575.175;0.6702942;0.048747085;1376.8793;-6958.884;-5582.0044;-2484.9282;0.0;0.0;1838.2656
1575.18;0.6702688;0.050216794;1376.9784;-6957.0015;-5580.023;-2477.0215;0.0;0.0;1838.2656
1575.185;0.6703785;0.051042497;1377.6826;-6955.643;-5577.9604;-2473.8762;0.0;0.0;1838.2656
1575.19;0.6706478;0.05009499;1379.0558;-6956.175;-5577.119;-2481.848;0.0;0.0;1838.2656
1575.195;0.6710719;0.046979655;1380.966;-6958.482;-5577.516;-2502.8486;0.0;0.0;1838.2656
1575.2;0.671577;0.04124913;1383.043;-6962.9297;-5579.8867;-2538.6055;0.0;0.0;1838.2656
1575.205;0.6720487;0.033264548;1384.771;-6969.293;-5584.522;-2586.0947;0.0;0.0;1838.2656
1575.21;0.6723545;0.023775933;1385.6808;-6976.8374;-5591.1567;-2640.2422;0.0;0.0;1838.2656
1575.215;0.67241466;0.014607038;1385.5566;-6983.731;-5598.1743;-2690.5583;0.0;0.0;1838.2656
1575.22;0.6722236;0.006658187;1384.4825;-6989.332;-5604.8496;-2732.2466;0.0;0.0;1838.2656
1575.225;0.6718399;0.0011193823;1382.7445;-6993.1357;-5610.391;-2759.316;0.0;0.0;1838.2656
1575.23;0.67134964;-0.0018456077;1380.6836;-6995.06;-5614.3765;-2771.5454;0.0;0.0;1838.2656
1575.235;0.6708308;-0.0015922727;1378.6035;-6994.665;-5616.0615;-2765.988;0.0;0.0;1838.2656
1575.24;0.67034966;0.0012493847;1376.7429;-6992.6753;-5615.9326;-2746.5957;0.0;0.0;1838.2656
1575.245;0.66995156;0.0063873003;1375.2506;-6989.296;-5614.0454;-2715.2766;0.0;0.0;1838.2656
1575.25;0.6696588;0.013332751;1374.2089;-6984.928;-5610.719;-2674.8904;0.0;0.0;1838.2656
1575.255;0.6694852;0.021320567;1373.655;-6980.1226;-5606.468;-2629.7314;0.0;0.0;1838.2656
1575.26;0.6694311;0.029793449;1373.5786;-6975.161;-5601.5825;-2582.8523;0.0;0.0;1838.2656
1575.265;0.6694881;0.038231786;1373.9358;-6970.4307;-5596.495;-2537.031;0.0;0.0;1838.2656
1575.27;0.66963893;0.046055418;1374.6382;-6966.1895;-5591.5513;-2495.29;0.0;0.0;1838.2656
1575.275;0.66985464;0.052849688;1375.5466;-6962.795;-5587.248;-2459.638;0.0;0.0;1838.2656
1575.28;0.670094;0.058187716;1376.4808;-6960.754;-5584.273;-2432.0684;0.0;0.0;1838.2656
1575.285;0.6703107;0.06237666;1377.2661;-6959.49;-5582.224;-2410.5376;0.0;0.0;1838.2656
1575.29;0.6704714;0.065558806;1377.8406;-6958.8657;-5581.0254;-2394.1377;0.0;0.0;1838.2656
1575.295;0.6705872;0.06818669;1378.293;-6958.302;-5580.009;-2380.5503;0.0;0.0;1838.2656
1575.3;0.6706938;0.06998347;1378.7749;-6958.461;-5579.686;-2371.6052;0.0;0.0;1838.2656
1575.305;0.67082614;0.07076272;1379.386;-6959.333;-5579.9473;-2368.53;0.0;0.0;1838.2656
1575.31;0.67098993;0.07052853;1380.0853;-6961.04;-5580.9546;-2371.2202;0.0;0.0;1838.2656
1575.315;0.6711549;0.069495305;1380.7396;-6963.074;-5582.3345;-2378.2268;0.0;0.0;1838.2656
1575.32;0.6712882;0.06781423;1381.2332;-6965.4316;-5584.198;-2388.4846;0.0;0.0;1838.2656
1575.325;0.67137057;0.06528592;1381.5037;-6968.6836;-5587.1797;-2402.9688;0.0;0.0;1838.2656
1575.33;0.67139596;0.062774055;1381.5581;-6971.6895;-5590.1313;-2416.9302;0.0;0.0;1838.2656
1575.335;0.6713764;0.060555104;1381.4431;-6974.198;-5592.755;-2428.9373;0.0;0.0;1838.2656
1575.34;0.6713237;0.058428843;1381.2009;-6976.683;-5595.4824;-2440.1787;0.0;0.0;1838.2656
1575.345;0.6712457;0.056565713;1380.8406;-6979.2373;-5598.3965;-2449.7327;0.0;0.0;1838.2656
1575.35;0.67113817;0.055450547;1380.3489;-6981.211;-5600.8623;-2454.8992;0.0;0.0;1838.2656
1575.355;0.6709982;0.055238716;1379.7085;-6982.4043;-5602.696;-2454.7866;0.0;0.0;1838.2656
1575.36;0.6708206;0.056211896;1378.896;-6982.5684;-5603.6724;-2447.7947;0.0;0.0;1838.2656
1575.365;0.67060155;0.058488302;1377.9375;-6981.71;-5603.7725;-2433.324;0.0;0.0;1838.2656
1575.37;0.6703602;0.06200576;1376.9197;-6980.0967;-5603.177;-2411.8901;0.0;0.0;1838.2656
1575.375;0.6701218;0.067024685;1375.979;-6977.2686;-5601.2896;-2382.3306;0.0;0.0;1838.2656
1575.38;0.6699287;0.073011495;1375.2775;-6973.8955;-5598.618;-2347.9114;0.0;0.0;1838.2656
1575.385;0.6698137;0.0795346;1374.9209;-6970.4204;-5595.4995;-2311.2246;0.0;0.0;1838.2656
1575.39;0.66978776;0.086612515;1374.8744;-6966.343;-5591.4683;-2272.0984;0.0;0.0;1838.2656
1575.395;0.66981393;0.0933246;1374.9359;-6962.9473;-5588.011;-2235.2056;0.0;0.0;1838.2656
1575.4;0.66982573;0.100363545;1374.8398;-6959.025;-5584.185;-2196.195;0.0;0.0;1838.2656
1575.405;0.6697682;0.107248865;1374.4423;-6955.5146;-5581.0723;-2157.4287;0.0;0.0;1838.2656
1575.41;0.66963863;0.11488093;1373.8496;-6951.009;-5577.159;-2114.1543;0.0;0.0;1838.2656
1575.415;0.6695017;0.12323892;1373.3689;-6945.654;-5572.285;-2067.1;0.0;0.0;1838.2656
1575.42;0.6694425;0.1314236;1373.3088;-6940.5396;-5567.2305;-2021.8433;0.0;0.0;1838.2656
1575.425;0.669517;0.13887481;1373.8284;-6935.9697;-5562.1416;-1981.7903;0.0;0.0;1838.2656
1575.43;0.66973597;0.14500214;1374.9072;-6932.5254;-5557.618;-1950.1571;0.0;0.0;1838.2656
1575.435;0.670071;0.14914323;1376.3871;-6930.3403;-5553.953;-1930.2795;0.0;0.0;1838.2656
1575.44;0.6704698;0.15121275;1378.0497;-6929.601;-5551.5513;-1922.1918;0.0;0.0;1838.2656
1575.445;0.6708776;0.15067169;1379.6713;-6930.9434;-5551.272;-1928.4188;0.0;0.0;1838.2656
1575.45;0.6712425;0.1479732;1381.0674;-6933.689;-5552.6216;-1946.0927;0.0;0.0;1838.2656
1575.455;0.6715317;0.14383851;1382.1387;-6937.176;-5555.037;-1971.0371;0.0;0.0;1838.2656
1575.46;0.67173445;0.1382206;1382.8628;-6941.76;-5558.897;-2003.467;0.0;0.0;1838.2656
1575.465;0.67185307;0.13179103;1383.2563;-6946.6133;-5563.357;-2039.7119;0.0;0.0;1838.2656
1575.47;0.67189574;0.12518382;1383.3591;-6951.213;-5567.8535;-2076.355;0.0;0.0;1838.2656
1575.475;0.6718754;0.11840479;1383.2283;-6955.9536;-5572.7256;-2113.4783;0.0;0.0;1838.2656
1575.48;0.67180693;0.11196693;1382.9238;-6960.132;-5577.208;-2148.3728;0.0;0.0;1838.2656
1575.485;0.6717051;0.10572885;1382.4895;-6964.3813;-5581.8916;-2181.9058;0.0;0.0;1838.2656
1575.49;0.671576;0.100189686;1381.9539;-6967.877;-5585.923;-2211.3818;0.0;0.0;1838.2656
1575.495;0.67142904;0.09514569;1381.353;-6971.0557;-5589.7026;-2237.9968;0.0;0.0;1838.2656
1575.5;0.6712732;0.09107578;1380.7446;-6973.218;-5592.473;-2259.2249;0.0;0.0;1838.2656
1575.505;0.6711286;0.08767203;1380.2075;-6974.907;-5594.6997;-2276.9216;0.0;0.0;1838.2656
1575.51;0.67101455;0.08453953;1379.8269;-6976.4785;-5596.6514;-2293.4355;0.0;0.0;1838.2656
1575.515;0.67095274;0.08197593;1379.7054;-6977.4507;-5597.745;-2307.3303;0.0;0.0;1838.2656
1575.52;0.67096853;0.079121806;1379.9114;-6978.783;-5598.872;-2323.4822;0.0;0.0;1838.2656
1575.525;0.6710637;0.07567727;1380.398;-6980.657;-5600.2593;-2343.4512;0.0;0.0;1838.2656
1575.53;0.671207;0.07160988;1381.0151;-6982.908;-5601.893;-2367.1165;0.0;0.0;1838.2656
1575.535;0.6713532;0.06654012;1381.5588;-6986.3496;-5604.791;-2396.1624;0.0;0.0;1838.2656
1575.54;0.6714503;0.06106077;1381.8386;-6989.8604;-5608.0215;-2426.9395;0.0;0.0;1838.2656
1575.545;0.67146295;0.055433076;1381.7697;-6993.5107;-5611.741;-2457.8372;0.0;0.0;1838.2656
1575.55;0.6713941;0.049906757;1381.4214;-6997.132;-5615.7104;-2487.6172;0.0;0.0;1838.2656
1575.555;0.67127913;0.04506993;1380.9497;-7000.042;-5619.0923;-2513.348;0.0;0.0;1838.2656
1575.56;0.6711597;0.041239217;1380.5273;-7001.6377;-5621.1104;-2533.629;0.0;0.0;1838.2656
1575.565;0.6710748;0.037288334;1380.2769;-7003.8257;-5623.549;-2554.916;0.0;0.0;1838.2656
1575.57;0.6710388;0.033628915;1380.2086;-7005.7075;-5625.499;-2574.9607;0.0;0.0;1838.2656
1575.575;0.6710393;0.029871512;1380.2681;-7007.6064;-5627.3384;-2595.8008;0.0;0.0;1838.2656
1575.58;0.6710599;0.026251685;1380.3802;-7009.211;-5628.8306;-2615.9878;0.0;0.0;1838.2656
1575.585;0.6710801;0.022320954;1380.4717;-7011.177;-5630.705;-2637.848;0.0;0.0;1838.2656
1575.59;0.67108583;0.018162679;1380.4707;-7013.331;-5632.8604;-2660.7778;0.0;0.0;1838.2656
1575.595;0.6710571;0.014211861;1380.3064;-7015.1904;-5634.884;-2682.2373;0.0;0.0;1838.2656
1575.6;0.6709804;0.010608994;1379.9177;-7016.665;-5636.747;-2701.329;0.0;0.0;1838.2656
1575.605;0.67084223;0.0075423648;1379.258;-7017.8755;-5638.617;-2716.9214;0.0;0.0;1838.2656
1575.61;0.6706385;0.0056073326;1378.3633;-7017.9307;-5639.5674;-2725.8032;0.0;0.0;1838.2656
1575.615;0.67039615;0.004888809;1377.3652;-7016.719;-5639.354;-2727.7698;0.0;0.0;1838.2656
1575.62;0.6701558;0.005369958;1376.4521;-7014.6543;-5638.202;-2723.29;0.0;0.0;1838.2656
1575.625;0.6699699;0.006341809;1375.844;-7012.329;-5636.4854;-2716.714;0.0;0.0;1838.2656
1575.63;0.6698889;0.007778733;1375.7034;-7009.635;-5633.9316;-2708.5085;0.0;0.0;1838.2656
1575.635;0.66993314;0.008675776;1376.0764;-7007.4707;-5631.3945;-2704.3076;0.0;0.0;1838.2656
1575.64;0.67009234;0.008540652;1376.8115;-7006.451;-5629.6396;-2706.5232;0.0;0.0;1838.2656
1575.645;0.670293;0.0077951862;1377.5974;-7005.369;-5627.7715;-2712.206;0.0;0.0;1838.2656
1575.65;0.6704583;0.006036661;1378.1594;-7005.255;-5627.0957;-2723.0278;0.0;0.0;1838.2656
1575.655;0.6705426;0.0038539374;1378.4105;-7005.2695;-5626.859;-2735.5674;0.0;0.0;1838.2656
1575.66;0.6705593;0.0016272959;1378.4221;-7005.1997;-5626.7773;-2747.87;0.0;0.0;1838.2656
1575.665;0.6705308;-0.0005701867;1378.2802;-7005.3145;-5627.034;-2759.7048;0.0;0.0;1838.2656
1575.67;0.6704752;-0.002447155;1377.997;-7005.3115;-5627.3145;-2769.4895;0.0;0.0;1838.2656
1575.675;0.6703785;-0.0035902197;1377.542;-7004.7124;-5627.1704;-2774.8833;0.0;0.0;1838.2656
1575.68;0.670241;-0.0037005285;1376.922;-7003.323;-5626.4014;-2774.2517;0.0;0.0;1838.2656
1575.685;0.67006934;-0.0026840584;1376.1838;-7001.367;-5625.1836;-2767.1697;0.0;0.0;1838.2656
1575.69;0.6698825;-0.0003096893;1375.419;-6998.266;-5622.847;-2752.5457;0.0;0.0;1838.2656
1575.695;0.6697067;0.0031095608;1374.7493;-6994.6387;-5619.8896;-2732.3499;0.0;0.0;1838.2656
1575.7;0.66957504;0.0073439707;1374.2944;-6990.8584;-5616.564;-2708.0884;0.0;0.0;1838.2656
1575.705;0.66951096;0.012248849;1374.1555;-6986.8066;-5612.6514;-2680.7612;0.0;0.0;1838.2656
1575.71;0.6695372;0.01746105;1374.3872;-6982.535;-5608.148;-2652.4802;0.0;0.0;1838.2656
1575.715;0.66965055;0.022543833;1374.9307;-6978.619;-5603.6885;-2625.5366;0.0;0.0;1838.2656
1575.72;0.6698197;0.02670792;1375.6189;-6976.2354;-5600.616;-2603.949;0.0;0.0;1838.2656
1575.725;0.6699922;0.030248487;1376.2424;-6974.6523;-5598.41;-2585.6707;0.0;0.0;1838.2656
1575.73;0.6701194;0.033499025;1376.6196;-6973.3574;-5596.738;-2568.499;0.0;0.0;1838.2656
1575.735;0.67016506;0.037288267;1376.6243;-6971.4688;-5594.8447;-2547.6113;0.0;0.0;1838.2656
1575.74;0.670111;0.041730862;1376.2483;-6969.16;-5592.912;-2522.3594;0.0;0.0;1838.2656
1575.745;0.6699779;0.046762165;1375.6119;-6966.7393;-5591.1274;-2493.34;0.0;0.0;1838.2656
1575.75;0.66980857;0.053013586;1374.9121;-6963.5493;-5588.637;-2457.465;0.0;0.0;1838.2656
1575.755;0.66965836;0.06006206;1374.384;-6959.7383;-5585.3545;-2417.538;0.0;0.0;1838.2656
1575.76;0.6695802;0.06748687;1374.1903;-6956.1084;-5581.918;-2376.2043;0.0;0.0;1838.2656
1575.765;0.6695927;0.07515257;1374.3416;-6952.27;-5577.9287;-2334.232;0.0;0.0;1838.2656
1575.77;0.66967326;0.08236219;1374.7108;-6948.83;-5574.119;-2295.211;0.0;0.0;1838.2656
1575.775;0.66978043;0.08908398;1375.1422;-6945.8623;-5570.72;-2259.0044;0.0;0.0;1838.2656
1575.78;0.66988426;0.09528605;1375.5594;-6943.0796;-5567.52;-2225.6357;0.0;0.0;1838.2656
1575.785;0.669981;0.100681975;1375.9556;-6940.9688;-5565.013;-2196.6704;0.0;0.0;1838.2656
1575.79;0.6700717;0.10513016;1376.3372;-6939.801;-5563.464;-2172.9028;0.0;0.0;1838.2656
1575.795;0.67015874;0.109380886;1376.6794;-6938.078;-5561.3984;-2150.1455;0.0;0.0;1838.2656
1575.8;0.67022616;0.112915054;1376.928;-6936.8374;-5559.909;-2131.1523;0.0;0.0;1838.2656
1575.805;0.6702662;0.11583524;1377.0681;-6935.826;-5558.758;-2115.3284;0.0;0.0;1838.2656
1575.81;0.6702841;0.118519604;1377.1735;-6934.7896;-5557.616;-2100.7354;0.0;0.0;1838.2656
1575.815;0.67031616;0.12057464;1377.4093;-6933.9307;-5556.5215;-2089.874;0.0;0.0;1838.2656
1575.82;0.6704048;0.12193556;1377.9144;-6933.4854;-5555.571;-2083.379;0.0;0.0;1838.2656
1575.825;0.67056805;0.1220626;1378.6981;-6933.884;-5555.1855;-2084.2458;0.0;0.0;1838.2656
1575.83;0.6707827;0.12113861;1379.5896;-6934.7656;-5555.176;-2091.1243;0.0;0.0;1838.2656
1575.835;0.67098385;0.11880555;1380.3131;-6936.666;-5556.353;-2105.4377;0.0;0.0;1838.2656
1575.84;0.6711045;0.11557673;1380.6267;-6939.1924;-5558.5654;-2123.871;0.0;0.0;1838.2656
1575.845;0.6711027;0.11230425;1380.4492;-6941.412;-5560.963;-2141.5632;0.0;0.0;1838.2656
1575.85;0.6709905;0.109176636;1379.8689;-6943.4463;-5563.577;-2157.651;0.0;0.0;1838.2656
1575.855;0.67080355;0.10697363;1379.0671;-6944.502;-5565.4346;-2168.1963;0.0;0.0;1838.2656
1575.86;0.67059654;0.105876446;1378.2555;-6944.289;-5566.0337;-2172.6238;0.0;0.0;1838.2656
1575.865;0.6704163;0.105441764;1377.6206;-6943.583;-5565.9624;-2173.7512;0.0;0.0;1838.2656
1575.87;0.67030334;0.10538971;1377.2961;-6942.513;-5565.217;-2173.3894;0.0;0.0;1838.2656
1575.875;0.67027634;0.105074294;1377.3108;-6941.9233;-5564.6123;-2175.1582;0.0;0.0;1838.2656
1575.88;0.67032343;0.10460913;1377.5747;-6941.371;-5563.7964;-2178.2512;0.0;0.0;1838.2656
1575.885;0.67040944;0.103628084;1377.9287;-6940.992;-5563.0635;-2184.3696;0.0;0.0;1838.2656
1575.89;0.6704902;0.10186307;1378.1849;-6941.4443;-5563.2593;-2194.6157;0.0;0.0;1838.2656
1575.895;0.6705235;0.1001544;1378.2412;-6941.399;-5563.1577;-2204.1514;0.0;0.0;1838.2656
1575.9;0.6705084;0.09831771;1378.1191;-6941.283;-5563.164;-2214.0361;0.0;0.0;1838.2656
1575.905;0.6704614;0.09670944;1377.9241;-6940.7686;-5562.8447;-2222.5151;0.0;0.0;1838.2656
1575.91;0.6704198;0.0949036;1377.8134;-6940.6143;-5562.801;-2232.2527;0.0;0.0;1838.2656
1575.915;0.670421;0.093119144;1377.9354;-6940.228;-5562.2925;-2242.3376;0.0;0.0;1838.2656
1575.92;0.6704966;0.09058446;1378.3838;-6940.5625;-5562.1787;-2257.2126;0.0;0.0;1838.2656
1575.925;0.67065406;0.08723487;1379.1667;-6941.609;-5562.4424;-2277.251;0.0;0.0;1838.2656
1575.93;0.6708844;0.082647994;1380.2107;-6943.4854;-5563.2744;-2304.6345;0.0;0.0;1838.2656
1575.935;0.67115587;0.07657975;1381.3428;-6946.6855;-5565.343;-2340.3638;0.0;0.0;1838.2656
1575.94;0.67141515;0.068949394;1382.3757;-6951.1953;-5568.8193;-2384.5095;0.0;0.0;1838.2656
1575.945;0.67162704;0.060498938;1383.1697;-6956.1475;-5572.9775;-2432.7;0.0;0.0;1838.2656
1575.95;0.6717643;0.051386774;1383.6372;-6961.576;-5577.939;-2483.8867;0.0;0.0;1838.2656
1575.955;0.6718158;0.041925758;1383.7496;-6967.3257;-5583.576;-2536.2874;0.0;0.0;1838.2656
1575.96;0.6717828;0.032961756;1383.5205;-6972.6436;-5589.123;-2585.2637;0.0;0.0;1838.2656
1575.965;0.6716735;0.024622506;1383.0045;-6977.4785;-5594.474;-2630.221;0.0;0.0;1838.2656
1575.97;0.67150736;0.017317578;1382.2805;-6981.706;-5599.426;-2669.058;0.0;0.0;1838.2656
1575.975;0.67130536;0.011399465;1381.4309;-6984.8105;-5603.38;-2699.996;0.0;0.0;1838.2656
1575.98;0.6710854;0.0067307167;1380.5328;-6987.423;-5606.89;-2723.947;0.0;0.0;1838.2656
1575.985;0.6708676;0.0031370104;1379.6644;-6989.5186;-5609.854;-2742.0288;0.0;0.0;1838.2656
1575.99;0.6706684;0.001138922;1378.9027;-6990.424;-5611.521;-2751.5244;0.0;0.0;1838.2656
1575.995;0.6705079;0.000465703;1378.3145;-6990.221;-5611.9067;-2754.0605;0.0;0.0;1838.2656
1576.0;0.670395;0.00022283092;1377.9119;-6990.2617;-5612.3496;-2754.595;0.0;0.0;1838.2656
1576.005;0.67032313;0.0004950026;1377.6515;-6990.2593;-5612.608;-2752.5732;0.0;0.0;1838.2656
1576.01;0.6702753;0.0013288107;1377.4612;-6989.8374;-5612.376;-2747.5942;0.0;0.0;1838.2656
1576.015;0.6702331;0.0026759838;1377.2566;-6988.92;-5611.663;-2739.7556;0.0;0.0;1838.2656
1576.02;0.67017555;0.004265091;1376.9955;-6988.007;-5611.011;-2730.47;0.0;0.0;1838.2656
1576.025;0.6701065;0.0062255966;1376.6964;-6986.656;-5609.9595;-2719.0598;0.0;0.0;1838.2656
1576.03;0.6700335;0.008751391;1376.4247;-6984.866;-5608.4414;-2704.5872;0.0;0.0;1838.2656
1576.035;0.6699815;0.011330167;1376.2537;-6982.8613;-5606.6074;-2690.0237;0.0;0.0;1838.2656
1576.04;0.6699585;0.013786136;1376.2128;-6981.1855;-5604.9727;-2676.3977;0.0;0.0;1838.2656
1576.045;0.6699705;0.016087307;1376.3246;-6979.4023;-5603.0776;-2663.931;0.0;0.0;1838.2656
1576.05;0.6700218;0.017702019;1376.5979;-6978.369;-5601.7715;-2655.5728;0.0;0.0;1838.2656
1576.055;0.67011154;0.019054888;1377.0283;-6977.1953;-5600.167;-2648.973;0.0;0.0;1838.2656
1576.06;0.6702372;0.019512454;1377.585;-6976.704;-5599.119;-2647.5627;0.0;0.0;1838.2656
1576.065;0.6703832;0.018937994;1378.1884;-6977.118;-5598.9297;-2651.9375;0.0;0.0;1838.2656
1576.07;0.6705241;0.017777806;1378.7062;-6977.7896;-5599.0835;-2659.3713;0.0;0.0;1838.2656
1576.075;0.6706219;0.016100612;1379.0054;-6978.8037;-5599.7983;-2669.2192;0.0;0.0;1838.2656
1576.08;0.6706508;0.014297398;1378.992;-6979.74;-5600.748;-2679.1367;0.0;0.0;1838.2656
1576.085;0.67059547;0.012837411;1378.6385;-6980.366;-5601.7275;-2686.4814;0.0;0.0;1838.2656
1576.09;0.67046326;0.01220451;1378.008;-6980.288;-5602.2803;-2688.7107;0.0;0.0;1838.2656
1576.095;0.6702813;0.0124679;1377.2086;-6979.581;-5602.3726;-2685.6592;0.0;0.0;1838.2656
1576.1;0.67007583;0.0141377;1376.3647;-6977.687;-5601.3223;-2674.763;0.0;0.0;1838.2656
