time;temperature;pressure;kinetic_energy;potential_energy;total_energy;virial;msd;diffusion;volume
3205.005;0.01802578;-0.81810665;37.05125;-9898.548;-9861.497;-4585.7944;0.0;0.0;1838.2656
3205.01;0.018027615;-0.8179872;37.06281;-9898.771;-9861.709;-4585.159;0.0;0.0;1838.2656
3205.015;0.018029392;-0.8178258;37.074127;-9898.84;-9861.766;-4584.2915;0.0;0.0;1838.2656
3205.02;0.018031046;-0.8175787;37.08476;-9898.811;-9861.726;-4582.9497;0.0;0.0;1838.2656
3205.025;0.018032435;-0.81747425;37.09449;-9899.053;-9861.958;-4582.3936;0.0;0.0;1838.2656
3205.03;0.018033616;-0.81736267;37.103127;-9899.115;-9862.012;-4581.7954;0.0;0.0;1838.2656
3205.035;0.018034404;-0.81725085;37.10912;-9899.24;-9862.131;-4581.191;0.0;0.0;1838.2656
3205.04;0.018034246;-0.8170508;37.110996;-9899.207;-9862.096;-4580.0913;0.0;0.0;1838.2656
3205.045;0.018033013;-0.816899;37.109184;-9899.373;-9862.264;-4579.2505;0.0;0.0;1838.2656
3205.05;0.018031042;-0.81677425;37.10304;-9899.357;-9862.254;-4578.5503;0.0;0.0;1838.2656
3205.055;0.018027656;-0.8165643;37.091805;-9899.2705;-9862.179;-4577.37;0.0;0.0;1838.2656
3205.06;0.018023232;-0.81644225;37.076298;-9899.426;-9862.35;-4576.6655;0.0;0.0;1838.2656
3205.065;0.0180178;-0.816196;37.05657;-9899.402;-9862.346;-4575.2686;0.0;0.0;1838.2656
3205.07;0.018011361;-0.8159604;37.03247;-9899.324;-9862.292;-4573.921;0.0;0.0;1838.2656
3205.075;0.018003833;-0.815723;37.005287;-9899.344;-9862.339;-4572.557;0.0;0.0;1838.2656
3205.08;0.017995983;-0.81557935;36.97574;-9899.488;-9862.513;-4571.706;0.0;0.0;1838.2656
3205.085;0.017987367;-0.8151989;36.94394;-9899.362;-9862.418;-4569.544;0.0;0.0;1838.2656
3205.09;0.01797852;-0.8149246;36.911915;-9899.513;-9862.601;-4567.9673;0.0;0.0;1838.2656
3205.095;0.017969882;-0.8147413;36.881775;-9899.73;-9862.849;-4566.8965;0.0;0.0;1838.2656
3205.1;0.017962042;-0.8143528;36.8538;-9899.763;-9862.909;-4564.6978;0.0;0.0;1838.2656
3205.105;0.017954513;-0.81411505;36.82854;-9899.926;-9863.098;-4563.336;0.0;0.0;1838.2656
3205.11;0.01794807;-0.81352127;36.80768;-9899.652;-9862.845;-4560.02;0.0;0.0;1838.2656
3205.115;0.017942771;-0.813045;36.791367;-9899.463;-9862.672;-4557.361;0.0;0.0;1838.2656
3205.12;0.017938562;-0.81249326;36.780064;-9899.18;-9862.399;-4554.2954;0.0;0.0;1838.2656
3205.125;0.01793574;-0.8120268;36.775375;-9899.07;-9862.295;-4551.714;0.0;0.0;1838.2656
3205.13;0.01793476;-0.8115467;36.776768;-9898.947;-9862.171;-4549.0684;0.0;0.0;1838.2656
3205.135;0.01793486;-0.81101763;36.783104;-9898.7295;-9861.946;-4546.1636;0.0;0.0;1838.2656
3205.14;0.017936291;-0.81062037;36.794827;-9898.633;-9861.838;-4543.996;0.0;0.0;1838.2656
3205.145;0.017938938;-0.81019235;36.811275;-9898.523;-9861.712;-4541.669;0.0;0.0;1838.2656
3205.15;0.017942622;-0.80994076;36.831177;-9898.73;-9861.899;-4540.3213;0.0;0.0;1838.2656
3205.155;0.017946864;-0.809486;36.853657;-9898.418;-9861.564;-4537.858;0.0;0.0;1838.2656
3205.16;0.017951699;-0.8092336;36.877483;-9898.455;-9861.577;-4536.5137;0.0;0.0;1838.2656
3205.165;0.017956521;-0.80901456;36.901165;-9898.467;-9861.565;-4535.353;0.0;0.0;1838.2656
3205.17;0.017961193;-0.8088059;36.924202;-9898.475;-9861.551;-4534.2485;0.0;0.0;1838.2656
3205.175;0.017965619;-0.8086515;36.945786;-9898.574;-9861.629;-4533.4404;0.0;0.0;1838.2656
3205.18;0.01796953;-0.8084453;36.96468;-9898.403;-9861.438;-4532.341;0.0;0.0;1838.2656
3205.185;0.017972581;-0.80831647;36.979992;-9898.432;-9861.451;-4531.661;0.0;0.0;1838.2656
3205.19;0.017974716;-0.80825603;36.99211;-9898.481;-9861.489;-4531.352;0.0;0.0;1838.2656
3205.195;0.017976174;-0.8081775;37.000298;-9898.529;-9861.529;-4530.935;0.0;0.0;1838.2656
3205.2;0.017976373;-0.8081565;37.004463;-9898.498;-9861.493;-4530.8276;0.0;0.0;1838.2656
3205.205;0.017975898;-0.80808264;37.00508;-9898.592;-9861.587;-4530.422;0.0;0.0;1838.2656
3205.21;0.017974371;-0.8080863;37.001686;-9898.731;-9861.7295;-4530.435;0.0;0.0;1838.2656
3205.215;0.017971955;-0.80810916;36.995216;-9898.816;-9861.821;-4530.5483;0.0;0.0;1838.2656
3205.22;0.017968958;-0.80817735;36.986412;-9899.041;-9862.055;-4530.9067;0.0;0.0;1838.2656
3205.225;0.017965427;-0.8081706;36.97513;-9899.175;-9862.199;-4530.847;0.0;0.0;1838.2656
3205.23;0.017961282;-0.8081906;36.96131;-9899.276;-9862.315;-4530.9297;0.0;0.0;1838.2656
3205.235;0.017956557;-0.80821824;36.9459;-9899.5205;-9862.574;-4531.0513;0.0;0.0;1838.2656
3205.24;0.017951662;-0.80823356;36.929684;-9899.591;-9862.661;-4531.1035;0.0;0.0;1838.2656
3205.245;0.017946579;-0.8082559;36.91363;-9899.861;-9862.947;-4531.1943;0.0;0.0;1838.2656
3205.25;0.017941805;-0.80816966;36.897587;-9899.896;-9862.999;-4530.6865;0.0;0.0;1838.2656
3205.255;0.017936777;-0.8081423;36.881077;-9900.02;-9863.139;-4530.503;0.0;0.0;1838.2656
3205.26;0.01793179;-0.8080083;36.86595;-9899.969;-9863.103;-4529.734;0.0;0.0;1838.2656
3205.265;0.017927468;-0.8078863;36.852657;-9899.959;-9863.106;-4529.034;0.0;0.0;1838.2656
3205.27;0.01792338;-0.80776113;36.839775;-9899.88;-9863.04;-4528.3184;0.0;0.0;1838.2656
3205.275;0.017919283;-0.80763817;36.828045;-9899.944;-9863.116;-4527.6167;0.0;0.0;1838.2656
3205.28;0.017915769;-0.8074818;36.818146;-9899.868;-9863.05;-4526.7344;0.0;0.0;1838.2656
3205.285;0.017912548;-0.8073161;36.80964;-9899.738;-9862.929;-4525.8037;0.0;0.0;1838.2656
3205.29;0.017909732;-0.80716175;36.80243;-9899.681;-9862.878;-4524.938;0.0;0.0;1838.2656
3205.295;0.017907148;-0.8069998;36.796524;-9899.533;-9862.736;-4524.033;0.0;0.0;1838.2656
3205.3;0.017904934;-0.8068589;36.7921;-9899.52;-9862.728;-4523.247;0.0;0.0;1838.2656
3205.305;0.01790309;-0.8067951;36.788807;-9899.516;-9862.727;-4522.8887;0.0;0.0;1838.2656
3205.31;0.017901422;-0.8068077;36.786858;-9899.58;-9862.793;-4522.954;0.0;0.0;1838.2656
3205.315;0.017900225;-0.80664533;36.78723;-9899.342;-9862.555;-4522.0596;0.0;0.0;1838.2656
3205.32;0.017899686;-0.8065079;36.788696;-9899.111;-9862.322;-4521.3047;0.0;0.0;1838.2656
3205.325;0.017898994;-0.8065688;36.79104;-9899.182;-9862.391;-4521.645;0.0;0.0;1838.2656
3205.33;0.017898882;-0.8065559;36.795437;-9899.135;-9862.339;-4521.583;0.0;0.0;1838.2656
3205.335;0.017899148;-0.8065981;36.800476;-9899.043;-9862.242;-4521.8257;0.0;0.0;1838.2656
3205.34;0.017899323;-0.80666876;36.805714;-9899.018;-9862.212;-4522.2256;0.0;0.0;1838.2656
3205.345;0.017899668;-0.80681133;36.81129;-9899.082;-9862.2705;-4523.023;0.0;0.0;1838.2656
3205.35;0.017899964;-0.8071413;36.816658;-9899.362;-9862.546;-4524.8535;0.0;0.0;1838.2656
3205.355;0.01790018;-0.8073353;36.821487;-9899.394;-9862.572;-4525.933;0.0;0.0;1838.2656
3205.36;0.017900184;-0.80742866;36.825386;-9899.27;-9862.444;-4526.456;0.0;0.0;1838.2656
3205.365;0.017899893;-0.80776817;36.827686;-9899.473;-9862.645;-4528.333;0.0;0.0;1838.2656
3205.37;0.01789909;-0.8080216;36.827755;-9899.469;-9862.641;-4529.7305;0.0;0.0;1838.2656
3205.375;0.017897666;-0.8085032;36.82487;-9899.884;-9863.059;-4532.381;0.0;0.0;1838.2656
3205.38;0.01789542;-0.8087588;36.818916;-9899.855;-9863.036;-4533.7783;0.0;0.0;1838.2656
3205.385;0.017892512;-0.80911523;36.809296;-9900.03;-9863.221;-4535.725;0.0;0.0;1838.2656
3205.39;0.017888471;-0.80944437;36.795868;-9900.088;-9863.292;-4537.513;0.0;0.0;1838.2656
3205.395;0.017883718;-0.8097153;36.77935;-9900.165;-9863.386;-4538.9736;0.0;0.0;1838.2656
3205.4;0.017878223;-0.8099483;36.760376;-9900.035;-9863.274;-4540.221;0.0;0.0;1838.2656
3205.405;0.017872313;-0.81019086;36.739136;-9900.02;-9863.28;-4541.516;0.0;0.0;1838.2656
3205.41;0.01786578;-0.81042993;36.715893;-9900.053;-9863.337;-4542.788;0.0;0.0;1838.2656
3205.415;0.017858937;-0.81049037;36.691986;-9899.735;-9863.043;-4543.0737;0.0;0.0;1838.2656
3205.42;0.017852157;-0.8107384;36.668724;-9899.776;-9863.107;-4544.395;0.0;0.0;1838.2656
3205.425;0.017845688;-0.8108688;36.64627;-9899.71;-9863.063;-4545.0693;0.0;0.0;1838.2656
3205.43;0.017839363;-0.81100464;36.625328;-9899.6875;-9863.0625;-4545.7764;0.0;0.0;1838.2656
3205.435;0.017833706;-0.8111758;36.607452;-9899.678;-9863.07;-4546.6846;0.0;0.0;1838.2656
3205.44;0.017828915;-0.8112572;36.59326;-9899.566;-9862.973;-4547.105;0.0;0.0;1838.2656
3205.445;0.017825097;-0.81129867;36.583145;-9899.354;-9862.7705;-4547.3135;0.0;0.0;1838.2656
3205.45;0.017822312;-0.8112796;36.57767;-9899.119;-9862.541;-4547.1973;0.0;0.0;1838.2656
3205.455;0.017820764;-0.8115201;36.57692;-9899.229;-9862.651;-4548.5225;0.0;0.0;1838.2656
3205.46;0.01782026;-0.81156963;36.580482;-9899.135;-9862.555;-4548.8027;0.0;0.0;1838.2656
3205.465;0.017820787;-0.81178063;36.588196;-9899.233;-9862.6455;-4549.982;0.0;0.0;1838.2656
3205.47;0.017822256;-0.81192464;36.599327;-9899.284;-9862.685;-4550.7983;0.0;0.0;1838.2656
3205.475;0.017824387;-0.8122732;36.613075;-9899.559;-9862.945;-4552.748;0.0;0.0;1838.2656
3205.48;0.017827053;-0.81251645;36.628586;-9899.685;-9863.056;-4554.1206;0.0;0.0;1838.2656
3205.485;0.017829983;-0.8127088;36.644554;-9899.658;-9863.014;-4555.213;0.0;0.0;1838.2656
3205.49;0.017832763;-0.8129737;36.659824;-9899.768;-9863.107;-4556.704;0.0;0.0;1838.2656
3205.495;0.01783531;-0.8132048;36.673626;-9899.808;-9863.134;-4558.007;0.0;0.0;1838.2656
3205.5;0.017837288;-0.813368;36.684547;-9899.714;-9863.029;-4558.9287;0.0;0.0;1838.2656
3205.505;0.017838355;-0.81372905;36.691734;-9899.942;-9863.251;-4560.934;0.0;0.0;1838.2656
3205.51;0.01783847;-0.81401765;36.69488;-9900.122;-9863.427;-4562.5317;0.0;0.0;1838.2656
3205.515;0.017837556;-0.81430143;36.693687;-9900.229;-9863.535;-4564.094;0.0;0.0;1838.2656
3205.52;0.017835543;-0.81440145;36.687836;-9900.008;-9863.32;-4564.6343;0.0;0.0;1838.2656
3205.525;0.017832372;-0.814508;36.677208;-9899.861;-9863.185;-4565.2007;0.0;0.0;1838.2656
3205.53;0.017828064;-0.81462777;36.66217;-9899.787;-9863.125;-4565.831;0.0;0.0;1838.2656
3205.535;0.017822789;-0.8148694;36.642906;-9899.928;-9863.285;-4567.125;0.0;0.0;1838.2656
3205.54;0.017816467;-0.814957;36.619976;-9899.944;-9863.324;-4567.5625;0.0;0.0;1838.2656
3205.545;0.017809486;-0.81516236;36.59484;-9900.22;-9863.625;-4568.6445;0.0;0.0;1838.2656
3205.55;0.017802157;-0.8152136;36.568806;-9900.189;-9863.621;-4568.875;0.0;0.0;1838.2656
3205.555;0.017794795;-0.8151503;36.542656;-9900.061;-9863.518;-4568.4736;0.0;0.0;1838.2656
3205.56;0.01778751;-0.81499225;36.517128;-9899.881;-9863.363;-4567.551;0.0;0.0;1838.2656
3205.565;0.017780503;-0.8148605;36.49275;-9899.853;-9863.359;-4566.7754;0.0;0.0;1838.2656
3205.57;0.017773855;-0.8147389;36.470516;-9899.833;-9863.362;-4566.061;0.0;0.0;1838.2656
3205.575;0.01776794;-0.81451726;36.45091;-9899.736;-9863.285;-4564.799;0.0;0.0;1838.2656
3205.58;0.01776262;-0.81422997;36.43483;-9899.484;-9863.05;-4563.1826;0.0;0.0;1838.2656
3205.585;0.017758438;-0.81378883;36.42257;-9899.151;-9862.729;-4560.725;0.0;0.0;1838.2656
3205.59;0.01775502;-0.8134864;36.414642;-9898.959;-9862.544;-4559.0415;0.0;0.0;1838.2656
3205.595;0.01775295;-0.8131406;36.41137;-9898.88;-9862.469;-4557.128;0.0;0.0;1838.2656
3205.6;0.017751804;-0.8127686;36.41183;-9898.729;-9862.316;-4555.077;0.0;0.0;1838.2656
3205.605;0.017751528;-0.81237185;36.415916;-9898.508;-9862.092;-4552.8975;0.0;0.0;1838.2656
3205.61;0.017752115;-0.8119648;36.42379;-9898.398;-9861.975;-4550.6685;0.0;0.0;1838.2656
3205.615;0.017753653;-0.8115167;36.434452;-9898.178;-9861.743;-4548.2188;0.0;0.0;1838.2656
3205.62;0.017755529;-0.81115144;36.4469;-9898.1;-9861.652;-4546.229;0.0;0.0;1838.2656
3205.625;0.017757906;-0.8107018;36.461205;-9897.874;-9861.413;-4543.778;0.0;0.0;1838.2656
3205.63;0.01776063;-0.8101056;36.476425;-9897.447;-9860.971;-4540.5205;0.0;0.0;1838.2656
3205.635;0.017763413;-0.8097023;36.49243;-9897.317;-9860.825;-4538.3286;0.0;0.0;1838.2656
3205.64;0.017766444;-0.8094234;36.508442;-9897.394;-9860.885;-4536.8223;0.0;0.0;1838.2656
3205.645;0.017769186;-0.8091663;36.523544;-9897.506;-9860.982;-4535.4346;0.0;0.0;1838.2656
3205.65;0.017771712;-0.8088443;36.536995;-9897.47;-9860.933;-4533.686;0.0;0.0;1838.2656
3205.655;0.01777361;-0.80864334;36.54841;-9897.615;-9861.066;-4532.6006;0.0;0.0;1838.2656
3205.66;0.017775115;-0.80836815;36.55824;-9897.701;-9861.143;-4531.1025;0.0;0.0;1838.2656
3205.665;0.017776225;-0.80821824;36.566162;-9897.932;-9861.365;-4530.292;0.0;0.0;1838.2656
3205.67;0.017776763;-0.80801934;36.571205;-9898.108;-9861.537;-4529.205;0.0;0.0;1838.2656
3205.675;0.017776456;-0.80765224;36.5736;-9897.994;-9861.421;-4527.1855;0.0;0.0;1838.2656
3205.68;0.017775703;-0.80751187;36.573685;-9898.221;-9861.647;-4526.411;0.0;0.0;1838.2656
3205.685;0.017774252;-0.8073303;36.570732;-9898.381;-9861.811;-4525.4043;0.0;0.0;1838.2656
3205.69;0.01777203;-0.80704623;36.56544;-9898.418;-9861.853;-4523.827;0.0;0.0;1838.2656
3205.695;0.017769476;-0.8069011;36.55836;-9898.683;-9862.124;-4523.012;0.0;0.0;1838.2656
3205.7;0.017766383;-0.80664116;36.549004;-9898.697;-9862.148;-4521.56;0.0;0.0;1838.2656
3205.705;0.017762756;-0.8064136;36.53763;-9898.785;-9862.247;-4520.282;0.0;0.0;1838.2656
3205.71;0.017758703;-0.806144;36.524364;-9898.867;-9862.343;-4518.769;0.0;0.0;1838.2656
3205.715;0.017754182;-0.80601394;36.5104;-9899.121;-9862.61;-4518.024;0.0;0.0;1838.2656
3205.72;0.017749839;-0.8057872;36.49645;-9899.128;-9862.632;-4516.7456;0.0;0.0;1838.2656
3205.725;0.017745363;-0.80557585;36.482414;-9899.309;-9862.826;-4515.552;0.0;0.0;1838.2656
3205.73;0.017741019;-0.8053339;36.46881;-9899.397;-9862.929;-4514.1904;0.0;0.0;1838.2656
3205.735;0.017736766;-0.8052182;36.45563;-9899.705;-9863.249;-4513.526;0.0;0.0;1838.2656
3205.74;0.01773269;-0.8048958;36.44357;-9899.678;-9863.234;-4511.724;0.0;0.0;1838.2656
3205.745;0.017728982;-0.80455166;36.43262;-9899.525;-9863.093;-4509.804;0.0;0.0;1838.2656
3205.75;0.017725466;-0.8043705;36.42346;-9899.594;-9863.17;-4508.7866;0.0;0.0;1838.2656
3205.755;0.017722623;-0.8040758;36.416016;-9899.592;-9863.176;-4507.1465;0.0;0.0;1838.2656
3205.76;0.017719954;-0.80387765;36.409664;-9899.544;-9863.135;-4506.0415;0.0;0.0;1838.2656
3205.765;0.017717615;-0.8036546;36.404552;-9899.49;-9863.086;-4504.801;0.0;0.0;1838.2656
3205.77;0.017715553;-0.80334044;36.400368;-9899.297;-9862.896;-4503.06;0.0;0.0;1838.2656
3205.775;0.017713659;-0.80318403;36.396927;-9899.371;-9862.975;-4502.1904;0.0;0.0;1838.2656
3205.78;0.017711937;-0.8030271;36.393837;-9899.336;-9862.942;-4501.319;0.0;0.0;1838.2656
3205.785;0.017710187;-0.8028261;36.390957;-9899.252;-9862.861;-4500.2046;0.0;0.0;1838.2656
3205.79;0.017708566;-0.80289733;36.388268;-9899.453;-9863.064;-4500.5923;0.0;0.0;1838.2656
3205.795;0.01770688;-0.80276823;36.385544;-9899.523;-9863.138;-4499.875;0.0;0.0;1838.2656
3205.8;0.017705247;-0.80269706;36.381943;-9899.479;-9863.097;-4499.475;0.0;0.0;1838.2656
3205.805;0.01770314;-0.80263966;36.378124;-9899.44;-9863.0625;-4499.151;0.0;0.0;1838.2656
3205.81;0.017701404;-0.8025619;36.37429;-9899.395;-9863.0205;-4498.7144;0.0;0.0;1838.2656
3205.815;0.017699283;-0.80266356;36.36994;-9899.604;-9863.233;-4499.266;0.0;0.0;1838.2656
3205.82;0.017697318;-0.802601;36.365723;-9899.575;-9863.209;-4498.913;0.0;0.0;1838.2656
3205.825;0.017695282;-0.8026257;36.361275;-9899.647;-9863.286;-4499.0405;0.0;0.0;1838.2656
3205.83;0.017693222;-0.80263674;36.35733;-9899.662;-9863.305;-4499.0933;0.0;0.0;1838.2656
3205.835;0.017691437;-0.802735;36.354736;-9899.759;-9863.404;-4499.63;0.0;0.0;1838.2656
3205.84;0.017690066;-0.8028712;36.35353;-9899.911;-9863.558;-4500.379;0.0;0.0;1838.2656
3205.845;0.01768896;-0.80308366;36.354202;-9900.227;-9863.872;-4501.552;0.0;0.0;1838.2656
3205.85;0.0176885;-0.80308443;36.35707;-9900.148;-9863.791;-4501.5615;0.0;0.0;1838.2656
3205.855;0.017688459;-0.8032233;36.361465;-9900.305;-9863.943;-4502.3364;0.0;0.0;1838.2656
3205.86;0.017688725;-0.8033752;36.36741;-9900.388;-9864.0205;-4503.186;0.0;0.0;1838.2656
3205.865;0.017689388;-0.8035078;36.375015;-9900.409;-9864.034;-4503.932;0.0;0.0;1838.2656
3205.87;0.017690443;-0.8035739;36.38363;-9900.376;-9863.992;-4504.314;0.0;0.0;1838.2656
3205.875;0.017691527;-0.8037083;36.392303;-9900.468;-9864.075;-4505.0728;0.0;0.0;1838.2656
3205.88;0.017692566;-0.8039749;36.400604;-9900.729;-9864.328;-4506.5596;0.0;0.0;1838.2656
3205.885;0.017693402;-0.8041022;36.407516;-9900.698;-9864.291;-4507.2754;0.0;0.0;1838.2656
3205.89;0.017693704;-0.8043376;36.411892;-9900.899;-9864.487;-4508.5825;0.0;0.0;1838.2656
3205.895;0.01769325;-0.8044789;36.413406;-9900.955;-9864.542;-4509.3643;0.0;0.0;1838.2656
3205.9;0.017692124;-0.80459464;36.411312;-9901.012;-9864.601;-4509.9985;0.0;0.0;1838.2656
3205.905;0.017689895;-0.80472267;36.404892;-9901.068;-9864.663;-4510.692;0.0;0.0;1838.2656
3205.91;0.017686635;-0.80484205;36.394478;-9901.198;-9864.804;-4511.329;0.0;0.0;1838.2656
3205.915;0.017682463;-0.8048759;36.379868;-9901.145;-9864.765;-4511.487;0.0;0.0;1838.2656
3205.92;0.017677162;-0.8049785;36.36059;-9901.319;-9864.959;-4512.014;0.0;0.0;1838.2656
3205.925;0.017670771;-0.804961;36.336407;-9901.344;-9865.008;-4511.8696;0.0;0.0;1838.2656
3205.93;0.017663147;-0.8049735;36.30871;-9901.414;-9865.105;-4511.8823;0.0;0.0;1838.2656
3205.935;0.017655099;-0.80496246;36.278664;-9901.557;-9865.278;-4511.7617;0.0;0.0;1838.2656
3205.94;0.017646438;-0.80489117;36.247;-9901.623;-9865.376;-4511.305;0.0;0.0;1838.2656
3205.945;0.017637676;-0.8046805;36.215515;-9901.512;-9865.296;-4510.0806;0.0;0.0;1838.2656
3205.95;0.017629184;-0.8044689;36.184914;-9901.496;-9865.312;-4508.8525;0.0;0.0;1838.2656
3205.955;0.017620962;-0.8041185;36.15645;-9901.322;-9865.166;-4506.8633;0.0;0.0;1838.2656
3205.96;0.017613579;-0.80370116;36.13121;-9901.078;-9864.947;-4504.511;0.0;0.0;1838.2656
3205.965;0.017607018;-0.8033993;36.110146;-9901.048;-9864.9375;-4502.804;0.0;0.0;1838.2656
3205.97;0.017601738;-0.8030598;36.094467;-9900.967;-9864.872;-4500.9004;0.0;0.0;1838.2656
3205.975;0.017597841;-0.80264527;36.08455;-9900.824;-9864.739;-4498.5947;0.0;0.0;1838.2656
3205.98;0.017595392;-0.80214494;36.080894;-9900.539;-9864.458;-4495.828;0.0;0.0;1838.2656
3205.985;0.01759456;-0.8015786;36.083473;-9900.127;-9864.044;-4492.71;0.0;0.0;1838.2656
3205.99;0.017595144;-0.801092;36.091732;-9899.858;-9863.767;-4490.0435;0.0;0.0;1838.2656
3205.995;0.017597022;-0.8005803;36.105408;-9899.499;-9863.394;-4487.2485;0.0;0.0;1838.2656
3206.0;0.017600209;-0.8003068;36.124065;-9899.512;-9863.388;-4485.7773;0.0;0.0;1838.2656
3206.005;0.017604435;-0.7998825;36.146534;-9899.349;-9863.202;-4483.4824;0.0;0.0;1838.2656
3206.01;0.01760938;-0.79958457;36.171844;-9899.228;-9863.056;-4481.89;0.0;0.0;1838.2656
3206.015;0.017614901;-0.7993833;36.199295;-9899.305;-9863.105;-4480.835;0.0;0.0;1838.2656
3206.02;0.017620798;-0.79906595;36.22679;-9899.09;-9862.863;-4479.1396;0.0;0.0;1838.2656
3206.025;0.01762623;-0.7989769;36.25315;-9899.183;-9862.93;-4478.7017;0.0;0.0;1838.2656
3206.03;0.017631475;-0.7988826;36.27739;-9899.309;-9863.031;-4478.2305;0.0;0.0;1838.2656
3206.035;0.017635796;-0.7987562;36.298035;-9899.422;-9863.124;-4477.574;0.0;0.0;1838.2656
3206.04;0.01763921;-0.7989072;36.314243;-9899.712;-9863.397;-4478.4395;0.0;0.0;1838.2656
3206.045;0.017641298;-0.7988388;36.32583;-9899.768;-9863.441;-4478.0854;0.0;0.0;1838.2656
3206.05;0.017642438;-0.7989324;36.33229;-9900.0625;-9863.73;-4478.6143;0.0;0.0;1838.2656
3206.055;0.01764202;-0.7990541;36.332924;-9900.3545;-9864.021;-4479.287;0.0;0.0;1838.2656
3206.06;0.01764031;-0.7991127;36.32775;-9900.469;-9864.141;-4479.5996;0.0;0.0;1838.2656
3206.065;0.017637102;-0.7991856;36.317474;-9900.705;-9864.388;-4479.981;0.0;0.0;1838.2656
3206.07;0.017632956;-0.7992636;36.303165;-9901.043;-9864.74;-4480.383;0.0;0.0;1838.2656
3206.075;0.017627824;-0.7991921;36.284313;-9900.961;-9864.677;-4479.9507;0.0;0.0;1838.2656
3206.08;0.01762151;-0.79914945;36.261616;-9901.042;-9864.78;-4479.67;0.0;0.0;1838.2656
3206.085;0.017614609;-0.7990757;36.23706;-9900.986;-9864.749;-4479.2144;0.0;0.0;1838.2656
3206.09;0.017607434;-0.7989451;36.211372;-9900.904;-9864.693;-4478.443;0.0;0.0;1838.2656
3206.095;0.01760007;-0.79886156;36.185207;-9900.943;-9864.758;-4477.9297;0.0;0.0;1838.2656
3206.1;0.017592724;-0.79884297;36.159645;-9901.067;-9864.908;-4477.776;0.0;0.0;1838.2656
3206.105;0.01758574;-0.79874176;36.13604;-9901.178;-9865.042;-4477.171;0.0;0.0;1838.2656
3206.11;0.017579406;-0.7986735;36.11431;-9901.23;-9865.116;-4476.751;0.0;0.0;1838.2656
