time;temperature;pressure;kinetic_energy;potential_energy;total_energy;virial;msd;diffusion;volume
1485.005;0.7073627;0.12943289;1455.3599;-6907.2363;-5451.8765;-2196.9236;0.0;0.0;1838.2656
1485.01;0.7075762;0.12601101;1456.2253;-6910.436;-5454.211;-2217.5256;0.0;0.0;1838.2656
1485.015;0.7077677;0.12149038;1456.9486;-6914.522;-5457.573;-2243.9023;0.0;0.0;1838.2656
1485.02;0.707901;0.11628823;1457.367;-6919.051;-5461.6836;-2273.428;0.0;0.0;1838.2656
1485.025;0.70793545;0.11107403;1457.3593;-6923.366;-5466.007;-2302.1677;0.0;0.0;1838.2656
1485.03;0.7078577;0.106143944;1456.8898;-6927.342;-5470.452;-2328.4172;0.0;0.0;1838.2656
1485.035;0.7076701;0.10238522;1456.0087;-6930.323;-5474.3145;-2347.3835;0.0;0.0;1838.2656
1485.04;0.70740116;0.09965981;1454.8645;-6932.713;-5477.8486;-2360.1255;0.0;0.0;1838.2656
1485.045;0.70709664;0.09897249;1453.6282;-6933.258;-5479.63;-2361.443;0.0;0.0;1838.2656
1485.05;0.7067947;0.0998392;1452.4493;-6932.692;-5480.2427;-2354.3057;0.0;0.0;1838.2656
1485.055;0.706526;0.1021924;1451.4055;-6931.1826;-5479.7773;-2339.2407;0.0;0.0;1838.2656
1485.06;0.7062942;0.10603257;1450.5037;-6928.4526;-5477.949;-2316.2593;0.0;0.0;1838.2656
1485.065;0.70609695;0.11097844;1449.7096;-6925.1895;-5475.48;-2287.3958;0.0;0.0;1838.2656
1485.07;0.70591897;0.11687163;1448.9651;-6921.3735;-5472.408;-2253.407;0.0;0.0;1838.2656
1485.075;0.705747;0.12367426;1448.2478;-6917.115;-5468.867;-2214.4573;0.0;0.0;1838.2656
1485.08;0.7055851;0.1318644;1447.5502;-6911.6987;-5464.1484;-2167.895;0.0;0.0;1838.2656
1485.085;0.7054278;0.14068355;1446.9023;-6906.009;-5459.1064;-2117.9634;0.0;0.0;1838.2656
1485.09;0.7052973;0.15056199;1446.395;-6899.416;-5453.021;-2062.4712;0.0;0.0;1838.2656
1485.095;0.7052166;0.16059655;1446.1624;-6892.9775;-5446.8154;-2006.6674;0.0;0.0;1838.2656
1485.1;0.70522517;0.17089063;1446.3066;-6886.2593;-5439.9526;-1950.1862;0.0;0.0;1838.2656
1485.105;0.7053276;0.18036635;1446.8306;-6880.517;-5433.6865;-1898.9773;0.0;0.0;1838.2656
1485.11;0.70551306;0.1891286;1447.6611;-6875.1147;-5427.4536;-1852.3165;0.0;0.0;1838.2656
1485.115;0.70575553;0.19663581;1448.6974;-6870.523;-5421.8257;-1812.9883;0.0;0.0;1838.2656
1485.12;0.7060347;0.20230637;1449.8943;-6867.6953;-5417.801;-1784.11;0.0;0.0;1838.2656
1485.125;0.7063495;0.2062756;1451.213;-6866.0366;-5414.8237;-1764.858;0.0;0.0;1838.2656
1485.13;0.70667773;0.20834076;1452.5325;-6865.8335;-5413.301;-1756.1079;0.0;0.0;1838.2656
1485.135;0.70697916;0.20910344;1453.6547;-6866.1816;-5412.527;-1754.1464;0.0;0.0;1838.2656
1485.14;0.7072;0.20812815;1454.407;-6867.895;-5413.4883;-1761.0295;0.0;0.0;1838.2656
1485.145;0.70731753;0.20644332;1454.7516;-6869.7744;-5415.023;-1771.0101;0.0;0.0;1838.2656
1485.15;0.7073442;0.20435083;1454.7936;-6871.715;-5416.9214;-1782.6338;0.0;0.0;1838.2656
1485.155;0.70732486;0.20243788;1454.7297;-6872.9883;-5418.259;-1793.0557;0.0;0.0;1838.2656
1485.16;0.7073112;0.19994381;1454.7427;-6874.7705;-5420.028;-1806.8358;0.0;0.0;1838.2656
1485.165;0.7073353;0.19713324;1454.8951;-6876.626;-5421.731;-1822.6405;0.0;0.0;1838.2656
1485.17;0.7073904;0.19346228;1455.1235;-6879.1875;-5424.064;-1843.3419;0.0;0.0;1838.2656
1485.175;0.7074491;0.18927872;1455.3027;-6882.0664;-5426.7637;-1866.7719;0.0;0.0;1838.2656
1485.18;0.7074806;0.18474825;1455.3496;-6884.7256;-5429.376;-1891.8501;0.0;0.0;1838.2656
1485.185;0.7074831;0.18004961;1455.3643;-6887.248;-5431.884;-1917.7915;0.0;0.0;1838.2656
1485.19;0.7075162;0.1747535;1455.6492;-6890.3306;-5434.6816;-1947.5682;0.0;0.0;1838.2656
1485.195;0.7076563;0.16864233;1456.4025;-6893.8765;-5437.474;-1982.7767;0.0;0.0;1838.2656
1485.2;0.7078951;0.16123216;1457.4177;-6898.43;-5441.0127;-2025.6729;0.0;0.0;1838.2656
1485.205;0.70812887;0.15222748;1458.338;-6904.3877;-5446.05;-2077.1724;0.0;0.0;1838.2656
1485.21;0.7083071;0.14243244;1459.065;-6910.706;-5451.641;-2132.644;0.0;0.0;1838.2656
1485.215;0.7084447;0.13172393;1459.6477;-6917.7446;-5458.0967;-2192.8647;0.0;0.0;1838.2656
1485.22;0.7085452;0.120596796;1459.9973;-6924.9873;-5464.99;-2254.9277;0.0;0.0;1838.2656
1485.225;0.70855755;0.10956301;1459.9175;-6932.1045;-5472.187;-2315.6172;0.0;0.0;1838.2656
1485.23;0.7084482;0.09894874;1459.3508;-6939.1353;-5479.784;-2373.0195;0.0;0.0;1838.2656
1485.235;0.7082319;0.090073034;1458.3877;-6944.506;-5486.118;-2420.041;0.0;0.0;1838.2656
1485.24;0.70794195;0.08263119;1457.151;-6948.8486;-5491.6978;-2458.6077;0.0;0.0;1838.2656
1485.245;0.70760065;0.07725501;1455.6914;-6951.838;-5496.1465;-2485.3372;0.0;0.0;1838.2656
1485.25;0.7072094;0.07414966;1454.016;-6953.164;-5499.148;-2499.1116;0.0;0.0;1838.2656
1485.255;0.7067717;0.07353547;1452.1521;-6952.956;-5500.8037;-2498.771;0.0;0.0;1838.2656
1485.26;0.70630133;0.075754695;1450.2043;-6950.5254;-5500.3213;-2482.637;0.0;0.0;1838.2656
1485.265;0.70583975;0.08075313;1448.3846;-6946.0684;-5497.6836;-2451.4321;0.0;0.0;1838.2656
1485.27;0.70545;0.088124685;1446.956;-6939.8545;-5492.8984;-2407.9224;0.0;0.0;1838.2656
1485.275;0.70519346;0.09671276;1446.1403;-6933.245;-5487.105;-2358.9292;0.0;0.0;1838.2656
1485.28;0.70510685;0.10579923;1446.0217;-6926.686;-5480.664;-2308.5823;0.0;0.0;1838.2656
1485.285;0.7051825;0.11478094;1446.4904;-6920.5024;-5474.012;-2259.987;0.0;0.0;1838.2656
1485.29;0.70536596;0.123133175;1447.2849;-6914.662;-5467.377;-2215.5154;0.0;0.0;1838.2656
1485.295;0.70558196;0.12974964;1448.1211;-6910.7163;-5462.595;-2180.6992;0.0;0.0;1838.2656
1485.3;0.70577234;0.13565546;1448.8087;-6907.0415;-5458.233;-2149.5051;0.0;0.0;1838.2656
1485.305;0.7059107;0.14059861;1449.2935;-6903.9385;-5454.645;-2123.214;0.0;0.0;1838.2656
1485.31;0.7060039;0.14487872;1449.6519;-6901.093;-5451.441;-2100.3271;0.0;0.0;1838.2656
1485.315;0.7060877;0.14823367;1450.0585;-6898.6035;-5448.545;-2082.6384;0.0;0.0;1838.2656
1485.32;0.70621246;0.15057732;1450.708;-6896.5913;-5445.8833;-2071.0127;0.0;0.0;1838.2656
1485.325;0.7064198;0.15175843;1451.7441;-6895.1255;-5443.3813;-2066.5713;0.0;0.0;1838.2656
1485.33;0.7067315;0.15049312;1453.184;-6895.629;-5442.445;-2076.429;0.0;0.0;1838.2656
1485.335;0.70712477;0.14659971;1454.8962;-6898.211;-5443.3145;-2101.325;0.0;0.0;1838.2656
1485.34;0.7075519;0.1406019;1456.6221;-6902.007;-5445.385;-2137.8533;0.0;0.0;1838.2656
1485.345;0.7079319;0.13241898;1458.0249;-6907.146;-5449.121;-2185.7861;0.0;0.0;1838.2656
1485.35;0.7081833;0.122864746;1458.7832;-6913.191;-5454.4077;-2239.9922;0.0;0.0;1838.2656
1485.355;0.7082396;0.11313014;1458.6827;-6918.8486;-5460.166;-2293.4758;0.0;0.0;1838.2656
1485.36;0.70807433;0.10379755;1457.7087;-6924.4746;-5466.7656;-2342.995;0.0;0.0;1838.2656
1485.365;0.7077203;0.09666691;1456.0424;-6927.8726;-5471.83;-2378.9863;0.0;0.0;1838.2656
1485.37;0.7072416;0.09220599;1454.0331;-6928.917;-5474.884;-2399.5688;0.0;0.0;1838.2656
1485.375;0.7067487;0.090264015;1452.1252;-6928.306;-5476.1807;-2406.463;0.0;0.0;1838.2656
1485.38;0.7063441;0.090283304;1450.7002;-6926.6406;-5475.9404;-2403.5063;0.0;0.0;1838.2656
1485.385;0.7061004;0.091639265;1449.9718;-6924.159;-5474.1875;-2394.5718;0.0;0.0;1838.2656
1485.39;0.70603436;0.09352619;1449.907;-6921.5903;-5471.6836;-2384.0361;0.0;0.0;1838.2656
1485.395;0.7061017;0.09552738;1450.2838;-6919.027;-5468.743;-2373.7534;0.0;0.0;1838.2656
1485.4;0.70623636;0.096861824;1450.8586;-6917.49;-5466.632;-2367.544;0.0;0.0;1838.2656
1485.405;0.7063902;0.09756792;1451.4854;-6916.68;-5465.195;-2364.9033;0.0;0.0;1838.2656
1485.41;0.7065472;0.09800299;1452.1514;-6915.754;-5463.6025;-2363.8362;0.0;0.0;1838.2656
1485.415;0.7067186;0.09754274;1452.8801;-6915.968;-5463.088;-2367.8318;0.0;0.0;1838.2656
1485.42;0.7069014;0.09622601;1453.6345;-6917.047;-5463.412;-2376.6023;0.0;0.0;1838.2656
1485.425;0.7070728;0.09447776;1454.2458;-6918.5576;-5464.3115;-2387.466;0.0;0.0;1838.2656
1485.43;0.7071716;0.09240419;1454.4849;-6920.34;-5465.855;-2399.3794;0.0;0.0;1838.2656
1485.435;0.7071537;0.09079028;1454.2285;-6921.597;-5467.3687;-2407.767;0.0;0.0;1838.2656
1485.44;0.7070138;0.08995372;1453.5355;-6922.3525;-5468.817;-2410.9946;0.0;0.0;1838.2656
1485.445;0.70679617;0.09033603;1452.6304;-6922.2544;-5469.624;-2407.076;0.0;0.0;1838.2656
1485.45;0.7065687;0.09172211;1451.7769;-6921.503;-5469.726;-2397.7249;0.0;0.0;1838.2656
1485.455;0.7063883;0.094036914;1451.1746;-6920.1416;-5468.967;-2383.7546;0.0;0.0;1838.2656
1485.46;0.70628875;0.09705314;1450.9048;-6918.203;-5467.2983;-2366.5813;0.0;0.0;1838.2656
1485.465;0.7062707;0.09992702;1450.9419;-6916.6357;-5465.694;-2350.8066;0.0;0.0;1838.2656
1485.47;0.7063179;0.10270883;1451.2151;-6915.037;-5463.8223;-2336.0117;0.0;0.0;1838.2656
1485.475;0.70641214;0.104652956;1451.6543;-6914.2583;-5462.604;-2326.1687;0.0;0.0;1838.2656
1485.48;0.7065374;0.10600009;1452.2133;-6913.8613;-5461.648;-2319.8577;0.0;0.0;1838.2656
1485.485;0.7066861;0.10615998;1452.835;-6914.6357;-5461.801;-2320.2192;0.0;0.0;1838.2656
1485.49;0.70683515;0.10562372;1453.415;-6915.5933;-5462.178;-2324.3367;0.0;0.0;1838.2656
1485.495;0.7069549;0.104627416;1453.8081;-6916.8726;-5463.0645;-2330.6172;0.0;0.0;1838.2656
1485.5;0.70700604;0.10308829;1453.8832;-6918.3496;-5464.4663;-2339.2554;0.0;0.0;1838.2656
1485.505;0.7069681;0.101678364;1453.5894;-6919.593;-5466.0034;-2346.443;0.0;0.0;1838.2656
1485.51;0.70684445;0.100828424;1452.9792;-6920.258;-5467.2783;-2349.9102;0.0;0.0;1838.2656
1485.515;0.70666313;0.10084647;1452.1982;-6919.8413;-5467.643;-2348.2488;0.0;0.0;1838.2656
1485.52;0.70646894;0.101773985;1451.4348;-6918.433;-5466.998;-2341.6067;0.0;0.0;1838.2656
1485.525;0.70630974;0.102998815;1450.9028;-6916.967;-5466.064;-2333.788;0.0;0.0;1838.2656
1485.53;0.7062411;0.104557656;1450.8287;-6915.0386;-5464.21;-2325.0432;0.0;0.0;1838.2656
1485.535;0.70631164;0.10532309;1451.3403;-6913.8027;-5462.4624;-2321.8452;0.0;0.0;1838.2656
1485.54;0.7065226;0.10470255;1452.3704;-6913.671;-5461.301;-2327.3274;0.0;0.0;1838.2656
1485.545;0.7068248;0.10234594;1453.6001;-6915.0107;-5461.4106;-2342.7832;0.0;0.0;1838.2656
1485.55;0.7071048;0.098351605;1454.5796;-6917.535;-5462.9556;-2366.77;0.0;0.0;1838.2656
1485.555;0.70726544;0.093635425;1455.0035;-6920.2324;-5465.229;-2393.6267;0.0;0.0;1838.2656
1485.56;0.7072734;0.08901035;1454.8655;-6922.4043;-5467.539;-2418.857;0.0;0.0;1838.2656
1485.565;0.70717394;0.08464053;1454.412;-6924.2856;-5469.8735;-2442.0486;0.0;0.0;1838.2656
1485.57;0.7070456;0.08088219;1453.9343;-6925.782;-5471.8477;-2461.8198;0.0;0.0;1838.2656
1485.575;0.7069481;0.077693276;1453.6609;-6926.9497;-5473.289;-2478.8591;0.0;0.0;1838.2656
1485.58;0.70692456;0.07469243;1453.6713;-6928.18;-5474.509;-2495.429;0.0;0.0;1838.2656
1485.585;0.7069594;0.0717807;1453.849;-6929.399;-5475.55;-2511.842;0.0;0.0;1838.2656
1485.59;0.7070044;0.06879598;1453.9663;-6931.037;-5477.071;-2528.5369;0.0;0.0;1838.2656
1485.595;0.70699877;0.06628259;1453.8347;-6932.3804;-5478.546;-2542.1345;0.0;0.0;1838.2656
1485.6;0.7069215;0.064404875;1453.4595;-6933.2705;-5479.811;-2551.7393;0.0;0.0;1838.2656
1485.605;0.7068077;0.06322741;1453.0441;-6933.8213;-5480.7773;-2557.4019;0.0;0.0;1838.2656
1485.61;0.7067221;0.062582456;1452.8195;-6934.404;-5481.5845;-2560.5093;0.0;0.0;1838.2656
1485.615;0.7067051;0.06240867;1452.8734;-6934.79;-5481.9165;-2561.5757;0.0;0.0;1838.2656
1485.62;0.7067489;0.06226937;1453.0972;-6935.4014;-5482.304;-2562.7915;0.0;0.0;1838.2656
1485.625;0.70680285;0.062384114;1453.2812;-6935.8955;-5482.6143;-2562.5269;0.0;0.0;1838.2656
1485.63;0.7068184;0.062530495;1453.25;-6936.627;-5483.377;-2561.657;0.0;0.0;1838.2656
1485.635;0.70676446;0.063384004;1452.9299;-6936.9746;-5484.045;-2556.31;0.0;0.0;1838.2656
1485.64;0.7066427;0.06480793;1452.3573;-6937.1445;-5484.787;-2547.312;0.0;0.0;1838.2656
1485.645;0.7064733;0.06744892;1451.64;-6936.3135;-5484.6733;-2531.313;0.0;0.0;1838.2656
1485.65;0.70629054;0.07113987;1450.9277;-6934.786;-5483.8584;-2509.5334;0.0;0.0;1838.2656
1485.655;0.70613325;0.075837635;1450.3549;-6932.656;-5482.301;-2482.4805;0.0;0.0;1838.2656
1485.66;0.70602477;0.08104632;1450.0071;-6930.328;-5480.3213;-2453.06;0.0;0.0;1838.2656
1485.665;0.7059789;0.08654225;1449.8855;-6927.925;-5478.039;-2422.508;0.0;0.0;1838.2656
1485.67;0.705979;0.0922574;1449.9235;-6925.4204;-5475.497;-2391.0662;0.0;0.0;1838.2656
1485.675;0.70600927;0.09760652;1450.054;-6923.289;-5473.2354;-2361.828;0.0;0.0;1838.2656
1485.68;0.70605356;0.10308632;1450.2418;-6920.7734;-5470.5317;-2331.9834;0.0;0.0;1838.2656
1485.685;0.7061147;0.10795727;1450.528;-6918.9785;-5468.4507;-2305.6934;0.0;0.0;1838.2656
1485.69;0.7062122;0.11217062;1451.0314;-6917.625;-5466.5938;-2283.4646;0.0;0.0;1838.2656
1485.695;0.7063803;0.115277685;1451.8268;-6917.2197;-5465.393;-2267.9207;0.0;0.0;1838.2656
1485.7;0.7066099;0.11705468;1452.8069;-6917.876;-5465.0693;-2260.081;0.0;0.0;1838.2656
1485.705;0.7068496;0.11763292;1453.7161;-6919.212;-5465.496;-2258.7104;0.0;0.0;1838.2656
1485.71;0.7070285;0.117212184;1454.3191;-6920.9575;-5466.6387;-2262.2368;0.0;0.0;1838.2656
1485.715;0.70711535;0.11621002;1454.5781;-6923.0693;-5468.491;-2268.2815;0.0;0.0;1838.2656
1485.72;0.7071347;0.11467633;1454.6351;-6925.454;-5470.819;-2276.8535;0.0;0.0;1838.2656
1485.725;0.70713186;0.11302662;1454.6304;-6927.746;-5473.1157;-2285.942;0.0;0.0;1838.2656
1485.73;0.7071217;0.11163434;1454.5305;-6929.3374;-5474.8066;-2293.4204;0.0;0.0;1838.2656
1485.735;0.70706594;0.11024175;1454.1543;-6931.073;-5476.919;-2300.3477;0.0;0.0;1838.2656
1485.74;0.7069184;0.10960633;1453.3918;-6931.883;-5478.491;-2302.3271;0.0;0.0;1838.2656
1485.745;0.70668274;0.1100832;1452.3315;-6931.784;-5479.4526;-2297.5767;0.0;0.0;1838.2656
1485.75;0.7064044;0.111799546;1451.1858;-6930.5693;-5479.384;-2285.8198;0.0;0.0;1838.2656
1485.755;0.7061396;0.11457007;1450.1699;-6928.5146;-5478.3447;-2268.5093;0.0;0.0;1838.2656
1485.76;0.70593464;0.118286125;1449.468;-6925.7236;-5476.256;-2246.612;0.0;0.0;1838.2656
1485.765;0.7058318;0.12241876;1449.2578;-6922.6475;-5473.3896;-2223.4011;0.0;0.0;1838.2656
1485.77;0.7058716;0.12609646;1449.6611;-6919.997;-5470.336;-2203.926;0.0;0.0;1838.2656
1485.775;0.70606077;0.12853199;1450.5945;-6918.5503;-5467.956;-2192.361;0.0;0.0;1838.2656
1485.78;0.7063392;0.12945324;1451.7551;-6918.2285;-5466.4736;-2189.6018;0.0;0.0;1838.2656
1485.785;0.706615;0.12928455;1452.76;-6918.355;-5465.5947;-2192.542;0.0;0.0;1838.2656
1485.79;0.7068015;0.12780619;1453.3452;-6919.617;-5466.272;-2201.8652;0.0;0.0;1838.2656
1485.795;0.70686835;0.12592421;1453.4666;-6920.8604;-5467.3936;-2212.4866;0.0;0.0;1838.2656
1485.8;0.7068344;0.12411474;1453.2314;-6921.993;-5468.7617;-2221.9954;0.0;0.0;1838.2656
1485.805;0.70673674;0.12263969;1452.8002;-6922.5303;-5469.73;-2229.2673;0.0;0.0;1838.2656
1485.81;0.7066155;0.12164176;1452.3058;-6922.8145;-5470.509;-2233.782;0.0;0.0;1838.2656
1485.815;0.7064936;0.12129416;1451.8348;-6922.3647;-5470.53;-2234.757;0.0;0.0;1838.2656
1485.82;0.7063878;0.12130223;1451.4348;-6921.815;-5470.38;-2233.9124;0.0;0.0;1838.2656
1485.825;0.7063037;0.12182083;1451.1428;-6920.5005;-5469.3574;-2230.4685;0.0;0.0;1838.2656
1485.83;0.70625263;0.12231297;1451.0128;-6919.503;-5468.49;-2227.4944;0.0;0.0;1838.2656
1485.835;0.7062506;0.12299577;1451.1007;-6918.129;-5467.0283;-2223.9048;0.0;0.0;1838.2656
1485.84;0.7063064;0.12320849;1451.4331;-6917.293;-5465.86;-2223.3965;0.0;0.0;1838.2656
1485.845;0.70641994;0.12269297;1451.9683;-6917.088;-5465.1196;-2227.3098;0.0;0.0;1838.2656
1485.85;0.7065662;0.12148377;1452.5852;-6917.451;-5464.866;-2235.2122;0.0;0.0;1838.2656
1485.855;0.7067096;0.119570985;1453.1333;-6918.489;-5465.3555;-2246.857;0.0;0.0;1838.2656
1485.86;0.7068155;0.116962455;1453.5063;-6920.206;-5466.6997;-2261.9885;0.0;0.0;1838.2656
1485.865;0.7068709;0.114397444;1453.6754;-6921.67;-5467.9946;-2276.4722;0.0;0.0;1838.2656
1485.87;0.70687914;0.11186489;1453.6742;-6923.0947;-5469.4204;-2290.4363;0.0;0.0;1838.2656
1485.875;0.70685506;0.10943228;1453.5688;-6924.5674;-5470.9985;-2303.6409;0.0;0.0;1838.2656
1485.88;0.7068166;0.107580625;1453.4297;-6925.502;-5472.0723;-2313.574;0.0;0.0;1838.2656
1485.885;0.70678;0.10586193;1453.3167;-6926.4946;-5473.1777;-2322.8262;0.0;0.0;1838.2656
1485.89;0.70675683;0.104333796;1453.2585;-6927.564;-5474.3057;-2331.1375;0.0;0.0;1838.2656
1485.895;0.706749;0.102936044;1453.2565;-6928.7017;-5475.4453;-2338.8416;0.0;0.0;1838.2656
1485.9;0.7067545;0.101568654;1453.3062;-6929.8535;-5476.5474;-2346.4817;0.0;0.0;1838.2656
1485.905;0.70677215;0.100085735;1453.3967;-6931.495;-5478.0986;-2354.8408;0.0;0.0;1838.2656
1485.91;0.70679826;0.098871276;1453.5208;-6932.7354;-5479.215;-2361.7866;0.0;0.0;1838.2656
1485.915;0.7068318;0.097794496;1453.6685;-6933.7793;-5480.111;-2368.0203;0.0;0.0;1838.2656
1485.92;0.7068683;0.09623833;1453.823;-6935.5356;-5481.713;-2376.9111;0.0;0.0;1838.2656
1485.925;0.70690346;0.09463694;1453.9796;-6937.527;-5483.5474;-2386.0557;0.0;0.0;1838.2656
1485.93;0.70693994;0.09285925;1454.1416;-6939.6587;-5485.517;-2396.1833;0.0;0.0;1838.2656
1485.935;0.7069748;0.09126447;1454.2766;-6941.6504;-5487.374;-2405.2483;0.0;0.0;1838.2656
1485.94;0.70699364;0.08957025;1454.3052;-6943.8325;-5489.5273;-2414.6487;0.0;0.0;1838.2656
1485.945;0.7069678;0.08819507;1454.0798;-6945.8306;-5491.751;-2421.7817;0.0;0.0;1838.2656
1485.95;0.70685494;0.08768714;1453.4271;-6947.124;-5493.697;-2423.2776;0.0;0.0;1838.2656
1485.955;0.7066186;0.08859963;1452.2587;-6947.216;-5494.957;-2415.9084;0.0;0.0;1838.2656
1485.96;0.706261;0.0913452;1450.6396;-6945.8496;-5495.21;-2397.529;0.0;0.0;1838.2656
1485.965;0.70581967;0.09677845;1448.7842;-6942.0903;-5493.306;-2363.8547;0.0;0.0;1838.2656
1485.97;0.7053669;0.10429269;1446.986;-6936.741;-5489.7554;-2318.8188;0.0;0.0;1838.2656
1485.975;0.7049728;0.11355711;1445.5315;-6930.297;-5484.7656;-2264.8186;0.0;0.0;1838.2656
1485.98;0.7047046;0.124205284;1444.6748;-6922.5625;-5477.8877;-2204.3826;0.0;0.0;1838.2656
1485.985;0.70461357;0.13479158;1444.6101;-6914.972;-5470.3623;-2145.872;0.0;0.0;1838.2656
1485.99;0.7047374;0.14434303;1445.4508;-6908.294;-5462.8433;-2094.8792;0.0;0.0;1838.2656
1485.995;0.7050857;0.15139738;1447.1975;-6903.834;-5456.6367;-2059.4692;0.0;0.0;1838.2656
1486.0;0.70563906;0.15540205;1449.6975;-6901.4473;-5451.75;-2042.3843;0.0;0.0;1838.2656
1486.005;0.70633113;0.15541185;1452.6221;-6902.08;-5449.458;-2048.1794;0.0;0.0;1838.2656
1486.01;0.7070595;0.1513894;1455.509;-6905.4385;-5449.9297;-2076.1362;0.0;0.0;1838.2656
1486.015;0.70770055;0.14416741;1457.8727;-6910.6504;-5452.778;-2120.6914;0.0;0.0;1838.2656
1486.02;0.7081492;0.13410158;1459.345;-6917.829;-5458.4844;-2179.147;0.0;0.0;1838.2656
1486.025;0.7083441;0.122643605;1459.7637;-6925.815;-5466.0513;-2243.1729;0.0;0.0;1838.2656
1486.03;0.70828235;0.11163309;1459.1792;-6932.868;-5473.689;-2302.7246;0.0;0.0;1838.2656
1486.035;0.7080035;0.102020614;1457.8086;-6938.4966;-5480.688;-2352.9941;0.0;0.0;1838.2656
1486.04;0.7075789;0.09438611;1455.9578;-6942.5273;-5486.5693;-2391.3953;0.0;0.0;1838.2656
1486.045;0.70708776;0.089608036;1453.9313;-6944.2427;-5490.3115;-2413.6924;0.0;0.0;1838.2656
1486.05;0.70659506;0.08740834;1451.9661;-6943.9463;-5491.9805;-2421.8928;0.0;0.0;1838.2656
1486.055;0.7061465;0.08769448;1450.2148;-6941.9814;-5491.7666;-2416.8125;0.0;0.0;1838.2656
1486.06;0.7057657;0.0902075;1448.7493;-6938.441;-5489.6914;-2400.0225;0.0;0.0;1838.2656
1486.065;0.70546263;0.09444498;1447.6274;-6933.8965;-5486.269;-2374.41;0.0;0.0;1838.2656
1486.07;0.7052537;0.10003988;1446.9106;-6928.5586;-5481.648;-2342.1218;0.0;0.0;1838.2656
1486.075;0.7051494;0.10613266;1446.6123;-6923.416;-5476.8037;-2307.9246;0.0;0.0;1838.2656
1486.08;0.7051405;0.11281356;1446.6841;-6917.6616;-5470.9775;-2271.2244;0.0;0.0;1838.2656
1486.085;0.70521086;0.119274914;1447.0371;-6912.456;-5465.419;-2236.2974;0.0;0.0;1838.2656
1486.09;0.7053327;0.12524806;1447.5732;-6907.986;-5460.4126;-2204.429;0.0;0.0;1838.2656
1486.095;0.7054874;0.13039167;1448.2422;-6904.3594;-5456.117;-2177.401;0.0;0.0;1838.2656
1486.1;0.70567024;0.1351217;1449.0082;-6901.0703;-5452.062;-2152.8477;0.0;0.0;1838.2656
1486.105;0.7058687;0.13880038;1449.8276;-6898.64;-5448.8125;-2134.1995;0.0;0.0;1838.2656
1486.11;0.7060703;0.14152294;1450.6018;-6897.3345;-5446.7324;-2120.7334;0.0;0.0;1838.2656
