time;temperature;pressure;kinetic_energy;potential_energy;total_energy;virial;msd;diffusion;volume
2845.005;0.16251169;-0.4609134;334.5196;-9585.693;-9251.174;-3210.8828;0.0;0.0;1838.2656
2845.01;0.1625424;-0.46275368;334.64456;-9586.817;-9252.173;-3221.2817;0.0;0.0;1838.2656
2845.015;0.16256717;-0.46500942;334.742;-9588.495;-9253.753;-3233.9165;0.0;0.0;1838.2656
2845.02;0.16258413;-0.4673183;334.8073;-9590.135;-9255.327;-3246.78;0.0;0.0;1838.2656
2845.025;0.16259292;-0.46940443;334.8361;-9591.395;-9256.559;-3258.3423;0.0;0.0;1838.2656
2845.03;0.16259205;-0.47161096;334.82648;-9592.818;-9257.992;-3270.4917;0.0;0.0;1838.2656
2845.035;0.16258205;-0.4737005;334.77588;-9594.029;-9259.254;-3281.9138;0.0;0.0;1838.2656
2845.04;0.16256139;-0.4756061;334.6859;-9595.192;-9260.507;-3292.243;0.0;0.0;1838.2656
2845.045;0.16253248;-0.47740397;334.5562;-9596.347;-9261.79;-3301.8984;0.0;0.0;1838.2656
2845.05;0.16249278;-0.47896087;334.38873;-9597.326;-9262.9375;-3310.1494;0.0;0.0;1838.2656
2845.055;0.162446;-0.4800744;334.19052;-9597.893;-9263.702;-3315.8938;0.0;0.0;1838.2656
2845.06;0.16239192;-0.481136;333.96606;-9598.656;-9264.69;-3321.2993;0.0;0.0;1838.2656
2845.065;0.16233303;-0.4817974;333.72296;-9599.222;-9265.499;-3324.4607;0.0;0.0;1838.2656
2845.07;0.16227067;-0.4818931;333.4717;-9599.11;-9265.639;-3324.486;0.0;0.0;1838.2656
2845.075;0.16220857;-0.48178536;333.21967;-9599.119;-9265.899;-3323.3877;0.0;0.0;1838.2656
2845.08;0.16214666;-0.48129374;332.974;-9598.836;-9265.862;-3320.185;0.0;0.0;1838.2656
2845.085;0.16208865;-0.48044997;332.75177;-9598.273;-9265.521;-3315.0874;0.0;0.0;1838.2656
2845.09;0.162039;-0.47924003;332.5617;-9597.381;-9264.819;-3308.035;0.0;0.0;1838.2656
2845.095;0.16199715;-0.47789338;332.41034;-9596.602;-9264.191;-3300.3057;0.0;0.0;1838.2656
2845.1;0.16196695;-0.4765235;332.3061;-9595.819;-9263.514;-3292.5425;0.0;0.0;1838.2656
2845.105;0.16194808;-0.47469428;332.2476;-9594.61;-9262.362;-3282.3376;0.0;0.0;1838.2656
2845.11;0.16194007;-0.47306022;332.2328;-9593.689;-9261.457;-3273.2966;0.0;0.0;1838.2656
2845.115;0.16194193;-0.47135392;332.24927;-9592.604;-9260.3545;-3263.9197;0.0;0.0;1838.2656
2845.12;0.16194837;-0.46957302;332.2821;-9591.372;-9259.09;-3254.164;0.0;0.0;1838.2656
2845.125;0.16195756;-0.4678303;332.31906;-9590.195;-9257.876;-3244.6272;0.0;0.0;1838.2656
2845.13;0.16196515;-0.46628895;332.34503;-9589.165;-9256.82;-3236.179;0.0;0.0;1838.2656
2845.135;0.16196845;-0.4647912;332.35196;-9588.296;-9255.944;-3227.933;0.0;0.0;1838.2656
2845.14;0.16196664;-0.4634052;332.33932;-9587.621;-9255.282;-3220.2642;0.0;0.0;1838.2656
2845.145;0.1619606;-0.4619879;332.3095;-9586.826;-9254.517;-3212.3884;0.0;0.0;1838.2656
2845.15;0.16195074;-0.4603395;332.26764;-9585.718;-9253.45;-3203.2139;0.0;0.0;1838.2656
2845.155;0.16193926;-0.4587712;332.22183;-9584.688;-9252.467;-3194.4736;0.0;0.0;1838.2656
2845.16;0.16192819;-0.45693162;332.18488;-9583.141;-9250.956;-3184.255;0.0;0.0;1838.2656
2845.165;0.16192147;-0.45532382;332.16614;-9582.199;-9250.033;-3175.3506;0.0;0.0;1838.2656
2845.17;0.16191967;-0.45364642;332.1706;-9580.997;-9248.826;-3166.1091;0.0;0.0;1838.2656
2845.175;0.16192462;-0.45209557;332.20667;-9579.963;-9247.756;-3157.6284;0.0;0.0;1838.2656
2845.18;0.16193822;-0.4505345;332.27954;-9578.742;-9246.463;-3149.1653;0.0;0.0;1838.2656
2845.185;0.161961;-0.44926718;332.38705;-9577.98;-9245.594;-3142.3914;0.0;0.0;1838.2656
2845.19;0.16199107;-0.448199;332.52304;-9577.313;-9244.79;-3136.7725;0.0;0.0;1838.2656
2845.195;0.16202722;-0.4472533;332.68427;-9576.647;-9243.963;-3131.8794;0.0;0.0;1838.2656
2845.2;0.16206884;-0.4464537;332.86554;-9576.011;-9243.1455;-3127.8325;0.0;0.0;1838.2656
2845.205;0.16211385;-0.4461768;333.05243;-9575.979;-9242.926;-3126.6792;0.0;0.0;1838.2656
2845.21;0.16215728;-0.44607168;333.23193;-9576.018;-9242.785;-3126.4587;0.0;0.0;1838.2656
2845.215;0.16219772;-0.44624272;333.3935;-9576.293;-9242.899;-3127.725;0.0;0.0;1838.2656
2845.22;0.1622315;-0.44667107;333.52075;-9576.785;-9243.265;-3130.3418;0.0;0.0;1838.2656
2845.225;0.1622545;-0.4472287;333.6018;-9577.439;-9243.838;-3133.579;0.0;0.0;1838.2656
2845.23;0.16226542;-0.44772077;333.63287;-9577.761;-9244.128;-3136.355;0.0;0.0;1838.2656
2845.235;0.16226397;-0.4482179;333.6148;-9578.172;-9244.557;-3139.0603;0.0;0.0;1838.2656
2845.24;0.16225126;-0.44860077;333.551;-9578.403;-9244.853;-3141.0442;0.0;0.0;1838.2656
2845.245;0.16222827;-0.4489863;333.44968;-9578.658;-9245.209;-3142.9675;0.0;0.0;1838.2656
2845.25;0.16219808;-0.4491717;333.3268;-9578.802;-9245.475;-3143.7444;0.0;0.0;1838.2656
2845.255;0.16216579;-0.44916448;333.19586;-9578.554;-9245.357;-3143.4426;0.0;0.0;1838.2656
2845.26;0.16213265;-0.44908765;333.073;-9578.47;-9245.396;-3142.7732;0.0;0.0;1838.2656
2845.265;0.16210523;-0.4488659;332.9769;-9578.101;-9245.124;-3141.358;0.0;0.0;1838.2656
2845.27;0.16208595;-0.44855815;332.91992;-9577.659;-9244.739;-3139.5469;0.0;0.0;1838.2656
2845.275;0.16207807;-0.44832602;332.90826;-9577.387;-9244.479;-3138.2434;0.0;0.0;1838.2656
2845.28;0.16208111;-0.44832763;332.94165;-9577.412;-9244.471;-3138.319;0.0;0.0;1838.2656
2845.285;0.16209494;-0.44816864;333.01773;-9576.959;-9243.941;-3137.5945;0.0;0.0;1838.2656
2845.29;0.16211818;-0.4485717;333.12738;-9577.209;-9244.082;-3140.0366;0.0;0.0;1838.2656
2845.295;0.16214758;-0.44907355;333.2589;-9577.487;-9244.229;-3143.0674;0.0;0.0;1838.2656
2845.3;0.16218069;-0.44981775;333.40036;-9577.934;-9244.533;-3147.4543;0.0;0.0;1838.2656
2845.305;0.16221409;-0.45065963;333.5366;-9578.32;-9244.784;-3152.3694;0.0;0.0;1838.2656
2845.31;0.16224396;-0.45171928;333.6565;-9578.669;-9245.013;-3158.4531;0.0;0.0;1838.2656
2845.315;0.16226883;-0.45307544;333.75824;-9579.398;-9245.641;-3166.1355;0.0;0.0;1838.2656
2845.32;0.16228949;-0.45438057;333.83923;-9579.879;-9246.04;-3173.495;0.0;0.0;1838.2656
2845.325;0.16230412;-0.45563957;333.89273;-9580.21;-9246.317;-3180.5452;0.0;0.0;1838.2656
2845.33;0.1623114;-0.457171;333.91953;-9580.764;-9246.844;-3189.0442;0.0;0.0;1838.2656
2845.335;0.16231288;-0.4587285;333.92273;-9581.412;-9247.489;-3197.64;0.0;0.0;1838.2656
2845.34;0.1623089;-0.4603644;333.90472;-9582.256;-9248.352;-3206.6255;0.0;0.0;1838.2656
2845.345;0.16230015;-0.46203262;333.86453;-9583.07;-9249.206;-3215.745;0.0;0.0;1838.2656
2845.35;0.16228536;-0.4636414;333.80533;-9583.919;-9250.113;-3224.4988;0.0;0.0;1838.2656
2845.355;0.16226749;-0.46509457;333.72604;-9584.65;-9250.925;-3232.3542;0.0;0.0;1838.2656
2845.36;0.162243;-0.46621373;333.62427;-9584.895;-9251.2705;-3238.3225;0.0;0.0;1838.2656
2845.365;0.16221444;-0.46728927;333.5053;-9585.188;-9251.684;-3244.016;0.0;0.0;1838.2656
2845.37;0.16218184;-0.46832803;333.372;-9585.563;-9252.191;-3249.478;0.0;0.0;1838.2656
2845.375;0.16214669;-0.46893752;333.2288;-9585.539;-9252.311;-3252.5527;0.0;0.0;1838.2656
2845.38;0.16210987;-0.46932632;333.0832;-9585.292;-9252.209;-3254.4055;0.0;0.0;1838.2656
2845.385;0.16207403;-0.46982148;332.94397;-9585.41;-9252.466;-3256.858;0.0;0.0;1838.2656
2845.39;0.16204087;-0.46986148;332.8211;-9584.984;-9252.163;-3256.8328;0.0;0.0;1838.2656
2845.395;0.16201341;-0.47001323;332.72122;-9584.891;-9252.169;-3257.47;0.0;0.0;1838.2656
2845.4;0.16199155;-0.46971306;332.6438;-9584.246;-9251.603;-3255.6597;0.0;0.0;1838.2656
2845.405;0.16197515;-0.46948704;332.58624;-9583.908;-9251.322;-3254.2983;0.0;0.0;1838.2656
2845.41;0.16196279;-0.46932554;332.5445;-9583.729;-9251.184;-3253.324;0.0;0.0;1838.2656
2845.415;0.16195402;-0.46902534;332.5154;-9583.372;-9250.856;-3251.6104;0.0;0.0;1838.2656
2845.42;0.16194768;-0.46866664;332.49585;-9583.009;-9250.513;-3249.593;0.0;0.0;1838.2656
2845.425;0.1619435;-0.46809593;332.4804;-9582.433;-9249.952;-3246.4148;0.0;0.0;1838.2656
2845.43;0.16193932;-0.4675219;332.46838;-9581.755;-9249.286;-3243.225;0.0;0.0;1838.2656
2845.435;0.16193691;-0.4668965;332.46652;-9581.146;-9248.68;-3239.7725;0.0;0.0;1838.2656
2845.44;0.16193789;-0.46636823;332.4776;-9580.764;-9248.286;-3236.881;0.0;0.0;1838.2656
2845.445;0.16194205;-0.4659111;332.50464;-9580.383;-9247.878;-3234.4143;0.0;0.0;1838.2656
2845.45;0.16195093;-0.46542338;332.54944;-9579.916;-9247.366;-3231.8142;0.0;0.0;1838.2656
2845.455;0.16196387;-0.46511638;332.61563;-9579.601;-9246.985;-3230.2537;0.0;0.0;1838.2656
2845.46;0.161983;-0.4646639;332.70538;-9578.934;-9246.229;-3227.9377;0.0;0.0;1838.2656
2845.465;0.16200729;-0.4642945;332.81787;-9578.189;-9245.371;-3226.1255;0.0;0.0;1838.2656
2845.47;0.16203713;-0.46423855;332.95;-9577.869;-9244.919;-3226.0813;0.0;0.0;1838.2656
2845.475;0.16207053;-0.46472722;333.0973;-9578.172;-9245.074;-3229.0708;0.0;0.0;1838.2656
2845.48;0.16210721;-0.46542546;333.25653;-9578.623;-9245.366;-3233.24;0.0;0.0;1838.2656
2845.485;0.16214566;-0.46611604;333.41785;-9578.727;-9245.309;-3237.371;0.0;0.0;1838.2656
2845.49;0.16218269;-0.467223;333.57343;-9579.293;-9245.72;-3243.7866;0.0;0.0;1838.2656
2845.495;0.1622176;-0.46876946;333.71613;-9580.43;-9246.714;-3252.6006;0.0;0.0;1838.2656
2845.5;0.16224769;-0.4702935;333.83517;-9581.235;-9247.4;-3261.2434;0.0;0.0;1838.2656
2845.505;0.16227053;-0.47213605;333.92203;-9582.559;-9248.637;-3271.5784;0.0;0.0;1838.2656
2845.51;0.16228443;-0.47397897;333.9693;-9583.637;-9249.667;-3281.8364;0.0;0.0;1838.2656
2845.515;0.1622878;-0.47573128;333.97552;-9584.488;-9250.513;-3291.5125;0.0;0.0;1838.2656
2845.52;0.1622816;-0.47757196;333.93915;-9585.58;-9251.641;-3301.5908;0.0;0.0;1838.2656
2845.525;0.16226438;-0.47918883;333.855;-9586.312;-9252.456;-3310.339;0.0;0.0;1838.2656
2845.53;0.16223529;-0.48088604;333.73053;-9587.436;-9253.705;-3319.45;0.0;0.0;1838.2656
2845.535;0.16219889;-0.48229647;333.5737;-9588.096;-9254.522;-3326.9146;0.0;0.0;1838.2656
2845.54;0.16215439;-0.48333654;333.38458;-9588.515;-9255.13;-3332.272;0.0;0.0;1838.2656
2845.545;0.16210315;-0.48433274;333.17575;-9589.05;-9255.874;-3337.3481;0.0;0.0;1838.2656
2845.55;0.16204987;-0.48500684;332.958;-9589.274;-9256.316;-3340.6304;0.0;0.0;1838.2656
2845.555;0.16199517;-0.48541093;332.74536;-9589.35;-9256.6045;-3342.4333;0.0;0.0;1838.2656
2845.56;0.16194534;-0.48542276;332.55377;-9589.115;-9256.562;-3342.1155;0.0;0.0;1838.2656
2845.565;0.1619018;-0.48506534;332.3896;-9588.3125;-9255.923;-3339.816;0.0;0.0;1838.2656
2845.57;0.16186601;-0.48475608;332.26505;-9587.838;-9255.573;-3337.8616;0.0;0.0;1838.2656
2845.575;0.16184214;-0.484466;332.189;-9587.502;-9255.3125;-3336.1094;0.0;0.0;1838.2656
2845.58;0.1618301;-0.483848;332.1584;-9586.648;-9254.49;-3332.6401;0.0;0.0;1838.2656
2845.585;0.16182816;-0.48325825;332.16565;-9585.816;-9253.65;-3329.4023;0.0;0.0;1838.2656
2845.59;0.16183406;-0.48264188;332.2038;-9584.893;-9252.688;-3326.0796;0.0;0.0;1838.2656
2845.595;0.16184673;-0.48237595;332.2621;-9584.615;-9252.354;-3324.7295;0.0;0.0;1838.2656
2845.6;0.16186187;-0.48201224;332.33075;-9583.953;-9251.622;-3322.861;0.0;0.0;1838.2656
2845.605;0.16187908;-0.48182094;332.40417;-9583.512;-9251.107;-3321.953;0.0;0.0;1838.2656
2845.61;0.16189611;-0.48182538;332.47473;-9583.297;-9250.822;-3322.1184;0.0;0.0;1838.2656
2845.615;0.1619118;-0.4819006;332.54004;-9583.141;-9250.601;-3322.664;0.0;0.0;1838.2656
2845.62;0.16192597;-0.4819437;332.60144;-9582.738;-9250.137;-3323.0244;0.0;0.0;1838.2656
2845.625;0.16193956;-0.48217738;332.6564;-9582.637;-9249.98;-3324.423;0.0;0.0;1838.2656
2845.63;0.16195038;-0.48201695;332.70197;-9581.864;-9249.162;-3323.6296;0.0;0.0;1838.2656
2845.635;0.16195922;-0.4823191;332.73627;-9581.756;-9249.02;-3325.3645;0.0;0.0;1838.2656
2845.64;0.16196442;-0.4824509;332.75375;-9581.303;-9248.549;-3326.1262;0.0;0.0;1838.2656
2845.645;0.16196512;-0.48276997;332.75534;-9581.258;-9248.503;-3327.889;0.0;0.0;1838.2656
2845.65;0.1619626;-0.48289755;332.74445;-9580.897;-9248.153;-3328.5708;0.0;0.0;1838.2656
2845.655;0.16195753;-0.48314202;332.7252;-9580.842;-9248.116;-3329.8804;0.0;0.0;1838.2656
2845.66;0.16195107;-0.4833105;332.70038;-9580.679;-9247.979;-3330.76;0.0;0.0;1838.2656
2845.665;0.16194338;-0.48343557;332.67072;-9580.465;-9247.794;-3331.3904;0.0;0.0;1838.2656
2845.67;0.1619345;-0.4835789;332.63354;-9580.352;-9247.718;-3332.1064;0.0;0.0;1838.2656
2845.675;0.16192304;-0.48336443;332.5882;-9579.873;-9247.285;-3330.833;0.0;0.0;1838.2656
2845.68;0.16191015;-0.48315927;332.5304;-9579.396;-9246.866;-3329.586;0.0;0.0;1838.2656
2845.685;0.16189267;-0.48299256;332.45828;-9578.955;-9246.497;-3328.5225;0.0;0.0;1838.2656
2845.69;0.16187291;-0.48253953;332.37585;-9578.293;-9245.917;-3325.8594;0.0;0.0;1838.2656
2845.695;0.16185078;-0.48209727;332.2876;-9577.754;-9245.467;-3323.2437;0.0;0.0;1838.2656
2845.7;0.16182864;-0.481579;332.20007;-9577.119;-9244.919;-3320.2104;0.0;0.0;1838.2656
2845.705;0.16180728;-0.4807621;332.12183;-9576.139;-9244.017;-3315.549;0.0;0.0;1838.2656
2845.71;0.16179028;-0.48014733;332.06427;-9575.514;-9243.449;-3312.0435;0.0;0.0;1838.2656
2845.715;0.1617794;-0.4794885;332.03424;-9574.931;-9242.896;-3308.35;0.0;0.0;1838.2656
2845.72;0.16177595;-0.47873622;332.03787;-9574.192;-9242.154;-3304.2087;0.0;0.0;1838.2656
2845.725;0.16178173;-0.4781313;332.0775;-9573.548;-9241.471;-3300.952;0.0;0.0;1838.2656
2845.73;0.16179566;-0.47749552;332.15076;-9572.849;-9240.698;-3297.5923;0.0;0.0;1838.2656
2845.735;0.16181765;-0.4771422;332.2577;-9572.436;-9240.178;-3295.8577;0.0;0.0;1838.2656
2845.74;0.16184762;-0.4767386;332.397;-9571.727;-9239.329;-3293.9104;0.0;0.0;1838.2656
2845.745;0.16188481;-0.47660574;332.55945;-9571.238;-9238.679;-3293.5027;0.0;0.0;1838.2656
2845.75;0.16192538;-0.4767106;332.7317;-9570.969;-9238.237;-3294.4255;0.0;0.0;1838.2656
2845.755;0.16196652;-0.477149;332.90625;-9571.076;-9238.17;-3297.1924;0.0;0.0;1838.2656
2845.76;0.16200773;-0.4776712;333.07452;-9570.996;-9237.922;-3300.4087;0.0;0.0;1838.2656
2845.765;0.16204493;-0.4788116;333.22565;-9571.8125;-9238.587;-3307.0;0.0;0.0;1838.2656
2845.77;0.1620773;-0.48006818;333.35245;-9572.635;-9239.282;-3314.1833;0.0;0.0;1838.2656
2845.775;0.16210231;-0.48134404;333.45212;-9573.449;-9239.997;-3321.419;0.0;0.0;1838.2656
2845.78;0.16212134;-0.48276114;333.52277;-9574.203;-9240.681;-3329.3752;0.0;0.0;1838.2656
2845.785;0.1621321;-0.4841652;333.5626;-9575.071;-9241.509;-3337.1978;0.0;0.0;1838.2656
2845.79;0.16213618;-0.4856562;333.57642;-9576.006;-9242.43;-3345.448;0.0;0.0;1838.2656
2845.795;0.1621344;-0.4870295;333.5649;-9576.744;-9243.18;-3352.9985;0.0;0.0;1838.2656
2845.8;0.16212633;-0.4882642;333.52905;-9577.369;-9243.84;-3359.736;0.0;0.0;1838.2656
2845.805;0.16211289;-0.4896317;333.4729;-9578.25;-9244.777;-3367.1653;0.0;0.0;1838.2656
2845.81;0.16209514;-0.49059045;333.39944;-9578.76;-9245.36;-3372.3057;0.0;0.0;1838.2656
2845.815;0.16207367;-0.49162668;333.3122;-9579.369;-9246.057;-3377.8457;0.0;0.0;1838.2656
2845.82;0.1620495;-0.49253422;333.214;-9579.871;-9246.657;-3382.6543;0.0;0.0;1838.2656
2845.825;0.16202304;-0.49329975;333.1118;-9580.452;-9247.341;-3386.6716;0.0;0.0;1838.2656
2845.83;0.16199751;-0.49372;333.01498;-9580.531;-9247.517;-3388.7954;0.0;0.0;1838.2656
2845.835;0.16197404;-0.49407798;332.92587;-9580.61;-9247.685;-3390.5916;0.0;0.0;1838.2656
2845.84;0.16195251;-0.49431768;332.84784;-9580.664;-9247.816;-3391.7573;0.0;0.0;1838.2656
2845.845;0.16193466;-0.49443898;332.78445;-9580.686;-9247.901;-3392.2993;0.0;0.0;1838.2656
2845.85;0.16192043;-0.49436513;332.73517;-9580.423;-9247.6875;-3391.7935;0.0;0.0;1838.2656
2845.855;0.16190943;-0.49442244;332.7005;-9580.456;-9247.756;-3392.0403;0.0;0.0;1838.2656
2845.86;0.16190232;-0.49440458;332.67853;-9580.436;-9247.757;-3391.898;0.0;0.0;1838.2656
2845.865;0.1618974;-0.49443817;332.667;-9580.636;-9247.969;-3392.06;0.0;0.0;1838.2656
2845.87;0.16189542;-0.49449387;332.66583;-9580.843;-9248.177;-3392.365;0.0;0.0;1838.2656
2845.875;0.16189535;-0.49456966;332.6734;-9581.103;-9248.429;-3392.798;0.0;0.0;1838.2656
2845.88;0.1618975;-0.4946567;332.6859;-9581.272;-9248.587;-3393.3032;0.0;0.0;1838.2656
2845.885;0.16189976;-0.49453628;332.70117;-9581.227;-9248.525;-3392.6694;0.0;0.0;1838.2656
2845.89;0.16190317;-0.49451217;332.71985;-9581.246;-9248.526;-3392.574;0.0;0.0;1838.2656
2845.895;0.1619069;-0.49444205;332.73828;-9581.231;-9248.493;-3392.2239;0.0;0.0;1838.2656
2845.9;0.16191022;-0.49429432;332.76038;-9581.128;-9248.367;-3391.4534;0.0;0.0;1838.2656
2845.905;0.16191585;-0.49430645;332.79202;-9581.14;-9248.348;-3391.5837;0.0;0.0;1838.2656
2845.91;0.16192393;-0.49429688;332.83493;-9581.176;-9248.341;-3391.6167;0.0;0.0;1838.2656
2845.915;0.16193505;-0.4945506;332.8909;-9581.644;-9248.753;-3393.128;0.0;0.0;1838.2656
2845.92;0.1619493;-0.49454966;332.9616;-9581.559;-9248.597;-3393.2642;0.0;0.0;1838.2656
2845.925;0.16196738;-0.49472043;333.0443;-9581.691;-9248.647;-3394.3713;0.0;0.0;1838.2656
2845.93;0.16198689;-0.49527413;333.1279;-9582.422;-9249.294;-3397.592;0.0;0.0;1838.2656
2845.935;0.1620048;-0.49594247;333.20526;-9583.324;-9250.119;-3401.4326;0.0;0.0;1838.2656
2845.94;0.16202073;-0.49636298;333.264;-9583.6045;-9250.341;-3403.8691;0.0;0.0;1838.2656
2845.945;0.16202895;-0.49702844;333.29132;-9584.385;-9251.094;-3407.5935;0.0;0.0;1838.2656
2845.95;0.16202945;-0.4975366;333.2845;-9584.939;-9251.655;-3410.382;0.0;0.0;1838.2656
2845.955;0.16202095;-0.49809575;333.24;-9585.484;-9252.244;-3413.3767;0.0;0.0;1838.2656
2845.96;0.16200314;-0.49852195;333.16077;-9585.975;-9252.813;-3415.5688;0.0;0.0;1838.2656
2845.965;0.16197808;-0.49881744;333.04822;-9586.498;-9253.45;-3416.9731;0.0;0.0;1838.2656
2845.97;0.16194446;-0.49898914;332.90314;-9586.9375;-9254.034;-3417.6301;0.0;0.0;1838.2656
2845.975;0.1619041;-0.49882475;332.7337;-9587.057;-9254.323;-3416.3845;0.0;0.0;1838.2656
2845.98;0.1618594;-0.49874943;332.5489;-9587.493;-9254.944;-3415.5996;0.0;0.0;1838.2656
2845.985;0.16181214;-0.49811473;332.35825;-9587.406;-9255.048;-3411.718;0.0;0.0;1838.2656
2845.99;0.16176565;-0.49707302;332.17133;-9586.775;-9254.6045;-3405.5994;0.0;0.0;1838.2656
2845.995;0.16172113;-0.49600878;332.00177;-9586.352;-9254.35;-3399.391;0.0;0.0;1838.2656
2846.0;0.16168396;-0.49447355;331.8665;-9585.342;-9253.476;-3390.6543;0.0;0.0;1838.2656
2846.005;0.16165687;-0.4929582;331.77512;-9584.463;-9252.6875;-3382.1145;0.0;0.0;1838.2656
2846.01;0.16164161;-0.49143127;331.73502;-9583.74;-9252.005;-3373.6138;0.0;0.0;1838.2656
2846.015;0.16163975;-0.48972946;331.75204;-9582.516;-9250.764;-3364.2627;0.0;0.0;1838.2656
2846.02;0.1616521;-0.48839432;331.8223;-9582.042;-9250.22;-3357.04;0.0;0.0;1838.2656
2846.025;0.16167563;-0.48727527;331.93732;-9581.65;-9249.713;-3351.0986;0.0;0.0;1838.2656
2846.03;0.16170894;-0.48628464;332.08447;-9581.255;-9249.17;-3345.93;0.0;0.0;1838.2656
2846.035;0.16174707;-0.48539603;332.24957;-9580.77;-9248.52;-3341.3596;0.0;0.0;1838.2656
2846.04;0.16178809;-0.48473057;332.42087;-9580.394;-9247.973;-3338.0322;0.0;0.0;1838.2656
2846.045;0.16182831;-0.48443687;332.58502;-9580.166;-9247.581;-3336.741;0.0;0.0;1838.2656
2846.05;0.16186517;-0.484687;332.73505;-9580.705;-9247.97;-3338.4204;0.0;0.0;1838.2656
2846.055;0.16189785;-0.485057;332.8673;-9580.975;-9248.107;-3340.7253;0.0;0.0;1838.2656
2846.06;0.16192576;-0.48547474;332.9812;-9581.197;-9248.216;-3343.2568;0.0;0.0;1838.2656
2846.065;0.16194946;-0.4862604;333.07904;-9581.662;-9248.583;-3347.7854;0.0;0.0;1838.2656
2846.07;0.16196954;-0.48740312;333.1618;-9582.572;-9249.41;-3354.253;0.0;0.0;1838.2656
2846.075;0.16198581;-0.48868427;333.23248;-9583.412;-9250.18;-3361.4595;0.0;0.0;1838.2656
2846.08;0.16200002;-0.49012232;333.2926;-9584.329;-9251.036;-3369.5103;0.0;0.0;1838.2656
2846.085;0.16201112;-0.49155304;333.3383;-9584.992;-9251.654;-3377.4917;0.0;0.0;1838.2656
2846.09;0.1620184;-0.4929794;333.37207;-9585.523;-9252.151;-3385.4253;0.0;0.0;1838.2656
2846.095;0.16202363;-0.49474454;333.39203;-9586.498;-9253.106;-3395.1997;0.0;0.0;1838.2656
2846.1;0.1620242;-0.49655396;333.39215;-9587.463;-9254.07;-3405.1785;0.0;0.0;1838.2656
2846.105;0.16201983;-0.49834043;333.37122;-9588.381;-9255.01;-3414.9888;0.0;0.0;1838.2656
2846.11;0.16201015;-0.5000812;333.3295;-9589.177;-9255.848;-3424.5051;0.0;0.0;1838.2656
2846.115;0.16199587;-0.50202316;333.26807;-9590.236;-9256.969;-3435.0918;0.0;0.0;1838.2656
