time;temperature;pressure;kinetic_energy;potential_energy;total_energy;virial;msd;diffusion;volume
455.005;1.1177849;1.2081392;2292.0007;-6424.099;-4132.0986;2078.6404;0.0;0.0;1838.2656
455.01;1.1176677;1.2213956;2291.824;-6415.12;-4123.296;2152.1006;0.0;0.0;1838.2656
455.015;1.1177899;1.2336388;2292.6523;-6407.034;-4114.382;2217.9624;0.0;0.0;1838.2656
455.02;1.1181501;1.2439455;2294.2974;-6400.2134;-4105.916;2271.512;0.0;0.0;1838.2656
455.025;1.1186365;1.2512505;2296.2063;-6395.6436;-4099.4375;2307.9797;0.0;0.0;1838.2656
455.03;1.1190937;1.2559646;2297.862;-6392.675;-4094.8127;2330.6655;0.0;0.0;1838.2656
455.035;1.1194521;1.2581823;2299.2073;-6391.206;-4091.9988;2340.205;0.0;0.0;1838.2656
455.04;1.1197748;1.2581161;2300.6074;-6390.965;-4090.3574;2337.0398;0.0;0.0;1838.2656
455.045;1.1201808;1.2550676;2302.5566;-6392.712;-4090.1553;2316.3293;0.0;0.0;1838.2656
455.05;1.1207746;1.2483232;2305.3118;-6397.0684;-4091.7566;2273.625;0.0;0.0;1838.2656
455.055;1.1215465;1.2369548;2308.6816;-6404.8604;-4096.1787;2204.1912;0.0;0.0;1838.2656
455.06;1.1223875;1.2207729;2312.113;-6416.25;-4104.1367;2108.0886;0.0;0.0;1838.2656
455.065;1.1231341;1.2005324;2314.9873;-6430.3;-4115.3125;1990.7179;0.0;0.0;1838.2656
455.07;1.1236628;1.1771921;2316.8774;-6446.3706;-4129.493;1858.2207;0.0;0.0;1838.2656
455.075;1.1239113;1.1522114;2317.6284;-6463.1357;-4145.5073;1718.955;0.0;0.0;1838.2656
455.08;1.1238847;1.1273268;2317.2883;-6479.7896;-4162.501;1582.402;0.0;0.0;1838.2656
455.085;1.123612;1.1035161;2315.9648;-6495.352;-4179.387;1453.7374;0.0;0.0;1838.2656
455.09;1.123119;1.0827293;2313.7334;-6508.2227;-4194.4893;1343.5656;0.0;0.0;1838.2656
455.095;1.1224269;1.0657227;2310.7627;-6517.964;-4207.201;1255.7189;0.0;0.0;1838.2656
455.1;1.1216044;1.0530976;2307.378;-6524.7695;-4217.3916;1192.8638;0.0;0.0;1838.2656
455.105;1.1207422;1.0453142;2303.898;-6527.878;-4223.98;1156.8994;0.0;0.0;1838.2656
455.11;1.1198968;1.0423385;2300.6025;-6527.6387;-4227.036;1147.0798;0.0;0.0;1838.2656
455.115;1.1191554;1.0429918;2297.91;-6525.4043;-4227.494;1156.0676;0.0;0.0;1838.2656
455.12;1.1186358;1.0469213;2296.2476;-6521.008;-4224.7603;1181.0626;0.0;0.0;1838.2656
455.125;1.1184088;1.0525725;2295.6982;-6515.873;-4220.175;1213.3273;0.0;0.0;1838.2656
455.13;1.1184055;1.0587875;2295.6836;-6510.9062;-4215.2227;1247.6307;0.0;0.0;1838.2656
455.135;1.1183975;1.0656872;2295.3218;-6505.5684;-4210.2466;1286.4045;0.0;0.0;1838.2656
455.14;1.1182091;1.0741659;2294.1497;-6499.004;-4204.8545;1335.5073;0.0;0.0;1838.2656
455.145;1.1178329;1.0845509;2292.483;-6491.0703;-4198.5874;1396.112;0.0;0.0;1838.2656
455.15;1.1174613;1.0970563;2291.241;-6481.582;-4190.341;1467.5602;0.0;0.0;1838.2656
455.155;1.1173419;1.1100774;2291.2485;-6471.939;-4180.6904;1539.3542;0.0;0.0;1838.2656
455.16;1.1175753;1.1218716;2292.4702;-6463.997;-4171.527;1601.9534;0.0;0.0;1838.2656
455.165;1.1179937;1.1321197;2294.0417;-6456.87;-4162.828;1655.3264;0.0;0.0;1838.2656
455.17;1.1183496;1.1405089;2295.2476;-6451.6123;-4156.3647;1699.1794;0.0;0.0;1838.2656
455.175;1.118592;1.1475657;2296.1875;-6446.877;-4150.6895;1736.2169;0.0;0.0;1838.2656
455.18;1.1188457;1.1528685;2297.4585;-6443.61;-4146.1514;1762.9187;0.0;0.0;1838.2656
455.185;1.1192588;1.1557012;2299.4172;-6442.565;-4143.1475;1774.6229;0.0;0.0;1838.2656
455.19;1.1198168;1.1556964;2301.7698;-6443.705;-4141.9355;1769.8911;0.0;0.0;1838.2656
455.195;1.120372;1.1528661;2303.8596;-6447.0103;-4143.1504;1750.1033;0.0;0.0;1838.2656
455.2;1.1207582;1.1482159;2305.0486;-6451.3193;-4146.2705;1722.0804;0.0;0.0;1838.2656
455.205;1.1208451;1.143048;2304.901;-6455.726;-4150.825;1693.876;0.0;0.0;1838.2656
455.21;1.120582;1.1390948;2303.4343;-6458.7964;-4155.3623;1675.0082;0.0;0.0;1838.2656
455.215;1.1200614;1.1379609;2301.2085;-6459.147;-4157.9385;1673.2063;0.0;0.0;1838.2656
455.22;1.1194736;1.1396383;2298.9036;-6457.2104;-4158.3066;1687.0665;0.0;0.0;1838.2656
455.225;1.1189458;1.1438223;2296.9458;-6453.5537;-4156.608;1714.056;0.0;0.0;1838.2656
455.23;1.1185437;1.1498805;2295.5027;-6448.252;-4152.749;1750.3524;0.0;0.0;1838.2656
455.235;1.1182787;1.1572824;2294.6323;-6442.052;-4147.4194;1792.9127;0.0;0.0;1838.2656
455.24;1.1181703;1.1648374;2294.415;-6435.866;-4141.451;1835.0116;0.0;0.0;1838.2656
455.245;1.1182274;1.1721072;2294.7856;-6429.907;-4135.1216;1874.3617;0.0;0.0;1838.2656
455.25;1.1183997;1.1784337;2295.4937;-6424.581;-4129.0874;1907.835;0.0;0.0;1838.2656
455.255;1.118622;1.1833977;2296.4429;-6420.256;-4123.813;1933.3116;0.0;0.0;1838.2656
455.26;1.1189293;1.1865903;2297.9043;-6417.3613;-4119.457;1947.996;0.0;0.0;1838.2656
455.265;1.1194149;1.1870885;2300.1697;-6416.669;-4116.499;1946.2126;0.0;0.0;1838.2656
455.27;1.1200856;1.1839966;2302.98;-6419.1562;-4116.1763;1923.5405;0.0;0.0;1838.2656
455.275;1.1207803;1.17754;2305.6807;-6424.131;-4118.45;1882.5323;0.0;0.0;1838.2656
455.28;1.1213585;1.1679518;2307.8923;-6431.4834;-4123.591;1825.2327;0.0;0.0;1838.2656
455.285;1.1217948;1.1564101;2309.517;-6440.0312;-4130.514;1758.3325;0.0;0.0;1838.2656
455.29;1.1220613;1.1431272;2310.3179;-6450.123;-4139.805;1683.4784;0.0;0.0;1838.2656
455.295;1.12207;1.1303359;2310.005;-6459.2983;-4149.2935;1613.5631;0.0;0.0;1838.2656
455.3;1.121799;1.1187389;2308.7134;-6467.466;-4158.7524;1552.1913;0.0;0.0;1838.2656
455.305;1.121357;1.1093056;2306.9326;-6473.959;-4167.0264;1503.7302;0.0;0.0;1838.2656
455.31;1.1208714;1.1022336;2305.0557;-6478.7974;-4173.7417;1468.4832;0.0;0.0;1838.2656
455.315;1.1203946;1.0979829;2303.2454;-6481.3174;-4178.0723;1448.662;0.0;0.0;1838.2656
455.32;1.1199553;1.0958095;2301.6255;-6482.5522;-4180.927;1439.9155;0.0;0.0;1838.2656
455.325;1.1195855;1.0957433;2300.3198;-6482.36;-4182.04;1442.1624;0.0;0.0;1838.2656
455.33;1.1193069;1.0972004;2299.314;-6481.037;-4181.723;1452.2095;0.0;0.0;1838.2656
455.335;1.1190796;1.0998751;2298.376;-6479.1465;-4180.7705;1468.8354;0.0;0.0;1838.2656
455.34;1.1188351;1.1041423;2297.312;-6475.9536;-4178.6416;1494.4965;0.0;0.0;1838.2656
455.345;1.1185567;1.1099696;2296.0974;-6471.5137;-4175.416;1529.0621;0.0;0.0;1838.2656
455.35;1.1182531;1.1174184;2294.7783;-6466.041;-4171.2627;1572.7788;0.0;0.0;1838.2656
455.355;1.1179398;1.1268114;2293.4656;-6458.921;-4165.455;1627.2046;0.0;0.0;1838.2656
455.36;1.1176568;1.1379629;2292.3376;-6450.657;-4158.3193;1690.9592;0.0;0.0;1838.2656
455.365;1.11745;1.1503474;2291.5923;-6441.509;-4149.9165;1760.7474;0.0;0.0;1838.2656
455.37;1.1173531;1.1636498;2291.226;-6431.711;-4140.485;1834.8402;0.0;0.0;1838.2656
455.375;1.1173168;1.177045;2290.9946;-6422.1445;-4131.15;1909.1748;0.0;0.0;1838.2656
455.38;1.117276;1.1908927;2290.7622;-6412.093;-4121.3306;1986.0071;0.0;0.0;1838.2656
455.385;1.1172514;1.2049028;2290.7122;-6401.748;-4111.036;2063.3694;0.0;0.0;1838.2656
455.39;1.1173165;1.2181935;2291.1016;-6392.5674;-4101.466;2135.8865;0.0;0.0;1838.2656
455.395;1.1175145;1.2304363;2292.0566;-6384.062;-4092.0054;2201.493;0.0;0.0;1838.2656
455.4;1.1178535;1.2406491;2293.5623;-6377.175;-4083.6125;2254.8035;0.0;0.0;1838.2656
455.405;1.1183145;1.2482396;2295.62;-6372.3193;-4076.6992;2292.5476;0.0;0.0;1838.2656
455.41;1.1189159;1.2521832;2298.2896;-6370.581;-4072.2915;2308.9568;0.0;0.0;1838.2656
455.415;1.1196579;1.2522346;2301.5366;-6371.554;-4070.0176;2302.7463;0.0;0.0;1838.2656
455.42;1.1205086;1.2477192;2305.0862;-6376.049;-4070.9626;2270.745;0.0;0.0;1838.2656
455.425;1.1213522;1.2387302;2308.3782;-6383.58;-4075.202;2214.5886;0.0;0.0;1838.2656
455.43;1.1220276;1.226034;2310.7666;-6393.6123;-4082.8457;2139.7954;0.0;0.0;1838.2656
455.435;1.1223961;1.2108284;2311.7573;-6405.4185;-4093.6611;2053.958;0.0;0.0;1838.2656
455.44;1.1223811;1.1957142;2311.201;-6416.2764;-4105.075;1971.7195;0.0;0.0;1838.2656
455.445;1.1220176;1.1820607;2309.4192;-6425.597;-4116.1777;1899.9866;0.0;0.0;1838.2656
455.45;1.1214516;1.1712403;2307.08;-6431.9795;-4124.8994;1844.9926;0.0;0.0;1838.2656
455.455;1.1208667;1.1628717;2304.9407;-6436.5156;-4131.575;1803.1202;0.0;0.0;1838.2656
455.46;1.1204437;1.1562967;2303.6816;-6439.756;-4136.074;1769.3782;0.0;0.0;1838.2656
455.465;1.1203166;1.1503242;2303.7324;-6442.814;-4139.0815;1736.3395;0.0;0.0;1838.2656
455.47;1.1205255;1.1431772;2305.0037;-6447.232;-4142.2285;1694.3822;0.0;0.0;1838.2656
455.475;1.1209412;1.1337932;2306.6997;-6453.9175;-4147.218;1639.24;0.0;0.0;1838.2656
455.48;1.1212895;1.1232479;2307.768;-6461.208;-4153.44;1578.9478;0.0;0.0;1838.2656
455.485;1.1213661;1.1121444;2307.713;-6468.733;-4161.02;1517.8245;0.0;0.0;1838.2656
455.49;1.1211778;1.1021723;2306.7556;-6475.2305;-4168.4746;1464.7451;0.0;0.0;1838.2656
455.495;1.1208459;1.0936916;2305.3901;-6480.448;-4175.058;1420.7064;0.0;0.0;1838.2656
455.5;1.120485;1.0873241;2304.0264;-6483.9736;-4179.9473;1388.3191;0.0;0.0;1838.2656
455.505;1.1201692;1.083077;2302.8374;-6485.865;-4183.028;1367.2744;0.0;0.0;1838.2656
455.51;1.1198895;1.0802782;2301.6606;-6487.16;-4185.4995;1354.1935;0.0;0.0;1838.2656
455.515;1.1195639;1.0797321;2300.1104;-6486.7344;-4186.624;1354.2822;0.0;0.0;1838.2656
455.52;1.1190981;1.0818235;2297.9658;-6484.3945;-4186.4287;1370.1052;0.0;0.0;1838.2656
455.525;1.1185052;1.0872772;2295.4985;-6479.54;-4184.0415;1405.1155;0.0;0.0;1838.2656
455.53;1.117927;1.0957732;2293.3506;-6472.5454;-4179.195;1456.2654;0.0;0.0;1838.2656
455.535;1.1175336;1.1063113;2292.1738;-6464.524;-4172.35;1516.7344;0.0;0.0;1838.2656
455.54;1.1174513;1.1175392;2292.2854;-6456.4556;-4164.17;1578.4304;0.0;0.0;1838.2656
455.545;1.1176792;1.1279548;2293.5186;-6449.5146;-4155.996;1633.4048;0.0;0.0;1838.2656
455.55;1.1181121;1.1364206;2295.3037;-6444.623;-4149.3193;1676.5211;0.0;0.0;1838.2656
455.555;1.1185694;1.1430229;2296.9736;-6441.1357;-4144.162;1709.5919;0.0;0.0;1838.2656
455.56;1.1189208;1.1483154;2298.153;-6438.708;-4140.5547;1736.4204;0.0;0.0;1838.2656
455.565;1.1191298;1.1527457;2298.7185;-6436.882;-4138.163;1759.7212;0.0;0.0;1838.2656
455.57;1.1191684;1.1572884;2298.4458;-6435.036;-4136.5903;1785.3191;0.0;0.0;1838.2656
455.575;1.1189551;1.1630158;2297.0835;-6432.0894;-4135.006;1819.629;0.0;0.0;1838.2656
455.58;1.1184753;1.1713243;2294.8083;-6426.7324;-4131.924;1869.9988;0.0;0.0;1838.2656
455.585;1.1178651;1.1827291;2292.3667;-6418.751;-4126.3843;1937.7772;0.0;0.0;1838.2656
455.59;1.1173658;1.1961962;2290.7554;-6409.4375;-4118.682;2015.2682;0.0;0.0;1838.2656
455.595;1.1172069;1.2103063;2290.7637;-6399.62;-4108.8564;2093.0662;0.0;0.0;1838.2656
455.6;1.117509;1.2228283;2292.6357;-6391.367;-4098.7314;2158.3777;0.0;0.0;1838.2656
455.605;1.1182271;1.2311851;2295.9028;-6387.087;-4091.184;2197.93;0.0;0.0;1838.2656
455.61;1.119134;1.2350708;2299.441;-6386.3657;-4086.9248;2212.283;0.0;0.0;1838.2656
455.615;1.1198996;1.2352697;2302.024;-6388.1387;-4086.1147;2208.2134;0.0;0.0;1838.2656
455.62;1.1203007;1.2331356;2303.1238;-6391.1016;-4087.9778;2194.2444;0.0;0.0;1838.2656
455.625;1.120358;1.2304883;2303.095;-6393.9814;-4090.8865;2179.7034;0.0;0.0;1838.2656
455.63;1.120251;1.2279086;2302.6748;-6396.3936;-4093.7188;2166.317;0.0;0.0;1838.2656
455.635;1.1201473;1.2253926;2302.348;-6398.646;-4096.298;2153.0957;0.0;0.0;1838.2656
455.64;1.1200954;1.2230563;2302.1543;-6400.453;-4098.299;2140.5984;0.0;0.0;1838.2656
455.645;1.1200536;1.2208891;2301.9316;-6401.718;-4099.786;2129.092;0.0;0.0;1838.2656
455.65;1.1199917;1.2182862;2301.6743;-6403.332;-4101.6577;2115.2522;0.0;0.0;1838.2656
455.655;1.1199502;1.2157203;2301.7263;-6404.6553;-4102.9287;2100.998;0.0;0.0;1838.2656
455.66;1.1200645;1.2121876;2302.6104;-6406.636;-4104.026;2079.748;0.0;0.0;1838.2656
455.665;1.1204268;1.2064794;2304.441;-6410.507;-4106.066;2044.607;0.0;0.0;1838.2656
455.67;1.1209586;1.1980721;2306.6233;-6416.4326;-4109.8096;1993.8777;0.0;0.0;1838.2656
455.675;1.1214302;1.187057;2308.225;-6424.243;-4116.018;1929.928;0.0;0.0;1838.2656
455.68;1.1216401;1.1747774;2308.6833;-6432.8457;-4124.162;1861.2921;0.0;0.0;1838.2656
455.685;1.1215582;1.1625645;2308.1128;-6441.1196;-4133.007;1795.0819;0.0;0.0;1838.2656
455.69;1.1212943;1.1514714;2306.9956;-6448.1714;-4141.176;1736.1398;0.0;0.0;1838.2656
455.695;1.1209778;1.1419983;2305.8584;-6453.6377;-4147.7793;1686.1718;0.0;0.0;1838.2656
455.7;1.1207243;1.1335245;2305.0024;-6458.605;-4153.6025;1641.153;0.0;0.0;1838.2656
455.705;1.1205384;1.1261936;2304.2524;-6462.624;-4158.3716;1602.2242;0.0;0.0;1838.2656
455.71;1.1203204;1.120066;2303.252;-6465.542;-4162.29;1570.4331;0.0;0.0;1838.2656
455.715;1.1200196;1.1154726;2302.0547;-6467.4053;-4165.3506;1547.4954;0.0;0.0;1838.2656
455.72;1.1197444;1.112361;2301.2612;-6467.8784;-4166.617;1531.922;0.0;0.0;1838.2656
455.725;1.1196797;1.1089718;2301.4753;-6469.25;-4167.7744;1512.8037;0.0;0.0;1838.2656
455.73;1.1199046;1.1044679;2302.8232;-6471.86;-4169.0366;1485.2694;0.0;0.0;1838.2656
455.735;1.120364;1.0980233;2304.8267;-6476.1787;-4171.352;1445.7222;0.0;0.0;1838.2656
455.74;1.1208597;1.088939;2306.6677;-6482.9814;-4176.3135;1391.9419;0.0;0.0;1838.2656
455.745;1.1211954;1.0789113;2307.6936;-6489.894;-4182.2;1334.5894;0.0;0.0;1838.2656
455.75;1.1212804;1.0680745;2307.7563;-6497.759;-4190.0024;1274.701;0.0;0.0;1838.2656
455.755;1.1211588;1.0583818;2307.109;-6504.282;-4197.1733;1222.543;0.0;0.0;1838.2656
455.76;1.120911;1.0498093;2306.0;-6510.1733;-4204.1733;1177.4854;0.0;0.0;1838.2656
455.765;1.1205751;1.0431576;2304.5576;-6514.7485;-4210.191;1143.6866;0.0;0.0;1838.2656
455.77;1.1201824;1.0388104;2302.9785;-6517.491;-4214.5127;1122.8712;0.0;0.0;1838.2656
455.775;1.1198009;1.036682;2301.4814;-6518.7236;-4217.242;1114.1278;0.0;0.0;1838.2656
455.78;1.1194557;1.0364679;2300.0376;-6518.7974;-4218.76;1115.8346;0.0;0.0;1838.2656
455.785;1.1190976;1.0385368;2298.3955;-6517.1567;-4218.761;1130.5284;0.0;0.0;1838.2656
455.79;1.1186624;1.0429981;2296.4512;-6513.713;-4217.2617;1159.0201;0.0;0.0;1838.2656
455.795;1.1181902;1.0503771;2294.5908;-6507.6353;-4213.0444;1203.4346;0.0;0.0;1838.2656
455.8;1.1178461;1.0588547;2293.5786;-6501.243;-4207.6646;1252.2113;0.0;0.0;1838.2656
455.805;1.1178255;1.0675217;2294.0896;-6494.8896;-4200.8;1298.986;0.0;0.0;1838.2656
455.81;1.1182244;1.0739703;2296.252;-6490.6665;-4194.4146;1330.2244;0.0;0.0;1838.2656
455.815;1.1189619;1.0763433;2299.5168;-6490.118;-4190.6016;1336.7806;0.0;0.0;1838.2656
455.82;1.1198266;1.074553;2302.9463;-6492.667;-4189.7207;1320.0488;0.0;0.0;1838.2656
455.825;1.120578;1.0688227;2305.6953;-6498.1963;-4192.501;1282.95;0.0;0.0;1838.2656
455.83;1.1210734;1.0603585;2307.3633;-6505.363;-4197.9995;1232.9352;0.0;0.0;1838.2656
455.835;1.1212847;1.0508794;2307.9067;-6513.1553;-4205.2485;1179.5728;0.0;0.0;1838.2656
455.84;1.1212332;1.0415156;2307.362;-6520.7485;-4213.3867;1129.0226;0.0;0.0;1838.2656
455.845;1.1209202;1.034153;2305.7524;-6526.0527;-4220.3003;1091.6384;0.0;0.0;1838.2656
455.85;1.1203659;1.0294893;2303.212;-6529.1104;-4225.8984;1071.0001;0.0;0.0;1838.2656
455.855;1.1196314;1.0288746;2300.132;-6528.7573;-4228.625;1073.7708;0.0;0.0;1838.2656
455.86;1.1188673;1.0314131;2297.263;-6526.615;-4229.3525;1093.508;0.0;0.0;1838.2656
455.865;1.1182927;1.0371153;2295.4773;-6521.955;-4226.4775;1128.5259;0.0;0.0;1838.2656
455.87;1.1180881;1.0439837;2295.2698;-6516.853;-4221.583;1166.8184;0.0;0.0;1838.2656
455.875;1.1182714;1.0500588;2296.4502;-6512.883;-4216.4326;1197.9609;0.0;0.0;1838.2656
455.88;1.1186945;1.0542693;2298.3;-6510.867;-4212.5674;1217.4811;0.0;0.0;1838.2656
455.885;1.1191475;1.0562936;2299.9712;-6510.9893;-4211.018;1225.3026;0.0;0.0;1838.2656
455.89;1.1194458;1.0573422;2300.8977;-6511.5986;-4210.701;1229.2322;0.0;0.0;1838.2656
455.895;1.1195288;1.0580091;2301.0;-6512.6226;-4211.6226;1232.7058;0.0;0.0;1838.2656
455.9;1.1194395;1.0592381;2300.473;-6513.344;-4212.871;1240.5369;0.0;0.0;1838.2656
455.905;1.1192367;1.0620924;2299.537;-6512.4297;-4212.8926;1258.1494;0.0;0.0;1838.2656
455.91;1.1189674;1.0663747;2298.3904;-6510.469;-4212.079;1284.059;0.0;0.0;1838.2656
455.915;1.1186827;1.0721174;2297.2246;-6507.6543;-4210.4297;1318.0608;0.0;0.0;1838.2656
455.92;1.1184243;1.0793998;2296.2197;-6503.6396;-4207.42;1360.2316;0.0;0.0;1838.2656
455.925;1.1182344;1.0874925;2295.5122;-6499.221;-4203.709;1406.2758;0.0;0.0;1838.2656
455.93;1.1181284;1.0962672;2295.1106;-6494.3584;-4199.248;1455.4698;0.0;0.0;1838.2656
455.935;1.118091;1.104997;2294.957;-6489.7656;-4194.8086;1503.9205;0.0;0.0;1838.2656
455.94;1.1181064;1.1137825;2295.0295;-6484.7607;-4189.7314;1552.2256;0.0;0.0;1838.2656
455.945;1.1181757;1.1223061;2295.2742;-6479.9985;-4184.7246;1598.7418;0.0;0.0;1838.2656
455.95;1.118265;1.1301317;2295.5503;-6475.789;-4180.239;1641.3466;0.0;0.0;1838.2656
455.955;1.1183358;1.1378475;2295.7124;-6471.0327;-4175.3203;1683.5731;0.0;0.0;1838.2656
455.96;1.1183634;1.1449822;2295.7786;-6466.8965;-4171.118;1722.7871;0.0;0.0;1838.2656
455.965;1.118397;1.1516085;2296.071;-6462.967;-4166.8955;1758.7446;0.0;0.0;1838.2656
455.97;1.1185551;1.1570774;2297.0916;-6460.0576;-4162.966;1786.864;0.0;0.0;1838.2656
455.975;1.1189449;1.1602995;2299.0178;-6458.9487;-4159.9307;1800.7804;0.0;0.0;1838.2656
455.98;1.1194984;1.1607323;2301.1958;-6460.0396;-4158.8438;1798.8109;0.0;0.0;1838.2656
455.985;1.1199409;1.158859;2302.5713;-6462.744;-4160.173;1785.7295;0.0;0.0;1838.2656
455.99;1.1200762;1.1562171;2302.6885;-6465.8677;-4163.179;1770.9255;0.0;0.0;1838.2656
455.995;1.1199296;1.1545136;2301.878;-6467.65;-4165.772;1763.1521;0.0;0.0;1838.2656
456.0;1.1196455;1.1545857;2300.5786;-6467.5015;-4166.923;1766.1484;0.0;0.0;1838.2656
456.005;1.1192818;1.1562471;2298.9514;-6466.3203;-4167.369;1778.5652;0.0;0.0;1838.2656
456.01;1.1188538;1.1599998;2297.0752;-6463.501;-4166.426;1803.0131;0.0;0.0;1838.2656
456.015;1.1183888;1.1661241;2295.0952;-6458.688;-4163.593;1840.747;0.0;0.0;1838.2656
456.02;1.1179376;1.1744908;2293.3223;-6452.065;-4158.7427;1890.4337;0.0;0.0;1838.2656
456.025;1.1176057;1.18415;2292.1987;-6444.4053;-4152.2065;1945.949;0.0;0.0;1838.2656
456.03;1.1174922;1.1941174;2292.0315;-6436.591;-4144.5596;2001.2522;0.0;0.0;1838.2656
456.035;1.1176276;1.2030396;2292.8145;-6429.7227;-4136.908;2048.8904;0.0;0.0;1838.2656
456.04;1.1179597;1.2102629;2294.3076;-6423.6606;-4129.353;2085.7385;0.0;0.0;1838.2656
456.045;1.1184199;1.2145777;2296.2434;-6420.013;-4123.7695;2105.6624;0.0;0.0;1838.2656
456.05;1.1189426;1.2158178;2298.3433;-6418.5537;-4120.2104;2108.302;0.0;0.0;1838.2656
456.055;1.1194471;1.2141438;2300.2021;-6418.8203;-4118.618;2095.352;0.0;0.0;1838.2656
456.06;1.1198242;1.2104298;2301.5078;-6420.245;-4118.7373;2072.2588;0.0;0.0;1838.2656
456.065;1.1200656;1.204719;2302.499;-6422.8135;-4120.3145;2038.7821;0.0;0.0;1838.2656
456.07;1.1203219;1.197245;2303.9175;-6426.6816;-4122.764;1994.7283;0.0;0.0;1838.2656
456.075;1.1207912;1.1866975;2306.3076;-6433.3013;-4126.9937;1931.7805;0.0;0.0;1838.2656
456.08;1.1214905;1.1725737;2309.4048;-6443.159;-4133.7544;1847.6964;0.0;0.0;1838.2656
456.085;1.1222265;1.1552579;2312.1235;-6455.37;-4143.2466;1746.7655;0.0;0.0;1838.2656
456.09;1.1226583;1.1364526;2313.2026;-6468.346;-4155.1436;1640.8998;0.0;0.0;1838.2656
456.095;1.1225593;1.118595;2312.064;-6480.3257;-4168.2617;1544.6965;0.0;0.0;1838.2656
456.1;1.1219285;1.1043327;2308.957;-6489.201;-4180.244;1472.2567;0.0;0.0;1838.2656
456.105;1.1209234;1.0953681;2304.6675;-6493.7734;-4189.106;1431.3981;0.0;0.0;1838.2656
456.11;1.1197827;1.0923257;2300.1792;-6494.002;-4193.8228;1423.5956;0.0;0.0;1838.2656
456.115;1.1187414;1.0949216;2296.3433;-6490.193;-4193.8496;1445.5837;0.0;0.0;1838.2656
456.12;1.1179594;1.1015438;2293.6758;-6483.8003;-4190.1245;1487.4387;0.0;0.0;1838.2656
456.125;1.1175086;1.1107298;2292.3643;-6476.026;-4183.6616;1540.7206;0.0;0.0;1838.2656
456.13;1.1173927;1.1204493;2292.3257;-6468.644;-4176.3184;1594.3992;0.0;0.0;1838.2656
456.135;1.1175492;1.1297843;2293.1943;-6461.826;-4168.632;1644.1422;0.0;0.0;1838.2656
456.14;1.1178442;1.1375546;2294.394;-6456.4897;-4162.0957;1684.595;0.0;0.0;1838.2656
456.145;1.1181357;1.1439711;2295.4487;-6452.2017;-4156.753;1717.871;0.0;0.0;1838.2656
456.15;1.1183577;1.1493434;2296.3413;-6448.4473;-4152.106;1745.7125;0.0;0.0;1838.2656
456.155;1.1185915;1.153008;2297.5273;-6446.059;-4148.5317;1763.5499;0.0;0.0;1838.2656
456.16;1.1189767;1.1542885;2299.4854;-6445.7974;-4146.312;1766.6962;0.0;0.0;1838.2656
