time;temperature;pressure;kinetic_energy;potential_energy;total_energy;virial;msd;diffusion;volume
870.005;0.95451427;0.6735483;1964.0814;-6695.3613;-4731.28;-213.68088;0.0;0.0;1838.2656
870.01;0.95457095;0.6675962;1963.9058;-6700.347;-4736.4414;-246.1541;0.0;0.0;1838.2656
870.015;0.9543284;0.66329587;1962.5055;-6703.7983;-4741.293;-267.06903;0.0;0.0;1838.2656
870.02;0.9537989;0.6621315;1960.0239;-6704.6445;-4744.6206;-268.52722;0.0;0.0;1838.2656
870.025;0.95305496;0.66511446;1956.7976;-6702.044;-4745.246;-245.62416;0.0;0.0;1838.2656
870.03;0.95219857;0.6727942;1953.3181;-6695.957;-4742.6387;-196.31282;0.0;0.0;1838.2656
870.035;0.95137197;0.6847776;1950.1406;-6686.8335;-4736.693;-123.8719;0.0;0.0;1838.2656
870.04;0.95069903;0.6998613;1947.7634;-6675.9746;-4728.211;-35.934082;0.0;0.0;1838.2656
870.045;0.9502885;0.7172059;1946.5381;-6663.716;-4717.1777;62.168503;0.0;0.0;1838.2656
870.05;0.9501891;0.7350722;1946.5996;-6651.2666;-4704.667;160.57468;0.0;0.0;1838.2656
870.055;0.9504022;0.75222725;1947.8652;-6639.507;-4691.6416;252.65016;0.0;0.0;1838.2656
870.06;0.9508735;0.7664917;1950.0181;-6630.4785;-4680.4604;327.0101;0.0;0.0;1838.2656
870.065;0.951488;0.77755576;1952.5367;-6624.05;-4671.513;382.98856;0.0;0.0;1838.2656
870.07;0.9521056;0.78572327;1954.8271;-6619.416;-4664.589;423.44977;0.0;0.0;1838.2656
870.075;0.952585;0.7911027;1956.4238;-6616.833;-4660.409;449.92325;0.0;0.0;1838.2656
870.08;0.952861;0.7946926;1957.2341;-6615.091;-4657.8564;468.0998;0.0;0.0;1838.2656
870.085;0.95297104;0.7975825;1957.473;-6613.253;-4655.78;483.55945;0.0;0.0;1838.2656
870.09;0.9529868;0.79993063;1957.458;-6611.6772;-4654.219;496.53888;0.0;0.0;1838.2656
870.095;0.9529887;0.8020221;1957.5073;-6609.75;-4652.2427;507.97424;0.0;0.0;1838.2656
870.1;0.9530461;0.80323845;1957.8962;-6608.4844;-4650.588;513.90454;0.0;0.0;1838.2656
870.105;0.9532201;0.8034434;1958.8691;-6607.7744;-4648.9053;513.08887;0.0;0.0;1838.2656
870.11;0.9535548;0.8012615;1960.4731;-6609.334;-4648.861;497.8481;0.0;0.0;1838.2656
870.115;0.954008;0.7966723;1962.406;-6612.783;-4650.377;468.6738;0.0;0.0;1838.2656
870.12;0.9544596;0.7900678;1964.0869;-6617.552;-4653.465;428.88943;0.0;0.0;1838.2656
870.125;0.95475024;0.7818675;1964.9353;-6623.582;-4658.6465;381.96997;0.0;0.0;1838.2656
870.13;0.95477796;0.77371174;1964.6642;-6629.157;-4664.493;337.5347;0.0;0.0;1838.2656
870.135;0.9545329;0.7670185;1963.3798;-6633.419;-4670.039;303.1917;0.0;0.0;1838.2656
870.14;0.9540984;0.7624169;1961.5076;-6636.005;-4674.497;281.5593;0.0;0.0;1838.2656
870.145;0.95360345;0.76060385;1959.5474;-6636.3506;-4676.803;275.48083;0.0;0.0;1838.2656
870.15;0.9531563;0.76115775;1957.8772;-6634.9883;-4677.1113;281.87595;0.0;0.0;1838.2656
870.155;0.9528169;0.7636166;1956.6272;-6632.424;-4675.797;297.93604;0.0;0.0;1838.2656
870.16;0.95257694;0.76760787;1955.7526;-6628.831;-4673.0786;321.6964;0.0;0.0;1838.2656
870.165;0.95241797;0.7721106;1955.1925;-6625.2163;-4670.024;347.64816;0.0;0.0;1838.2656
870.17;0.95232874;0.7772777;1954.9484;-6621.1934;-4666.245;376.6318;0.0;0.0;1838.2656
870.175;0.95232266;0.7827;1955.0669;-6616.8853;-4661.8184;406.29788;0.0;0.0;1838.2656
870.18;0.9524079;0.7871378;1955.5795;-6613.661;-4658.0815;429.74612;0.0;0.0;1838.2656
870.185;0.9525866;0.7906484;1956.4458;-6611.0312;-4654.5854;447.37366;0.0;0.0;1838.2656
870.19;0.95282805;0.79266;1957.4663;-6609.6704;-4652.204;456.42627;0.0;0.0;1838.2656
870.195;0.95306593;0.7931598;1958.4343;-6609.285;-4650.8506;457.24628;0.0;0.0;1838.2656
870.2;0.953279;0.79253894;1959.3846;-6609.379;-4649.994;451.92215;0.0;0.0;1838.2656
870.205;0.95351726;0.7899188;1960.5237;-6611.0503;-4650.5264;435.19424;0.0;0.0;1838.2656
870.21;0.9538234;0.78523177;1961.9124;-6614.568;-4652.6553;406.56885;0.0;0.0;1838.2656
870.215;0.95417047;0.7789357;1963.3135;-6618.973;-4655.6597;369.04492;0.0;0.0;1838.2656
870.22;0.9544608;0.77121;1964.288;-6624.1807;-4659.8926;324.4907;0.0;0.0;1838.2656
870.225;0.95458555;0.76281273;1964.4875;-6629.83;-4665.343;277.782;0.0;0.0;1838.2656
870.23;0.9545036;0.7549073;1963.9036;-6634.6865;-4670.783;235.3532;0.0;0.0;1838.2656
870.235;0.9542716;0.74823433;1962.8696;-6638.493;-4675.6235;200.6212;0.0;0.0;1838.2656
870.24;0.9540007;0.74305207;1961.8279;-6641.1743;-4679.3467;174.12556;0.0;0.0;1838.2656
870.245;0.9537866;0.7392185;1961.0625;-6642.883;-4681.8203;154.51471;0.0;0.0;1838.2656
870.25;0.953658;0.73621464;1960.6177;-6644.4404;-4683.8228;138.83876;0.0;0.0;1838.2656
870.255;0.95359534;0.7340246;1960.376;-6645.507;-4685.131;127.244385;0.0;0.0;1838.2656
870.26;0.9535534;0.73231554;1960.1349;-6646.699;-4686.5645;118.30165;0.0;0.0;1838.2656
870.265;0.95347214;0.7315637;1959.6189;-6647.216;-4687.5967;115.18742;0.0;0.0;1838.2656
870.27;0.9532781;0.7319438;1958.6266;-6647.127;-4688.5005;119.268;0.0;0.0;1838.2656
870.275;0.95296925;0.7341071;1957.2926;-6645.8164;-4688.524;133.86629;0.0;0.0;1838.2656
870.28;0.9526329;0.7383635;1956.0046;-6642.637;-4686.633;159.91551;0.0;0.0;1838.2656
870.285;0.95236826;0.74381816;1955.0925;-6638.8174;-4683.7246;191.82095;0.0;0.0;1838.2656
870.29;0.9522263;0.75003725;1954.7;-6634.535;-4679.835;226.90308;0.0;0.0;1838.2656
870.295;0.9522176;0.75618273;1954.8301;-6630.5034;-4675.6733;260.53412;0.0;0.0;1838.2656
870.3;0.9523252;0.7619211;1955.3925;-6626.881;-4671.4883;291.05536;0.0;0.0;1838.2656
870.305;0.95251524;0.76617265;1956.2249;-6624.49;-4668.2656;312.83685;0.0;0.0;1838.2656
870.31;0.9527426;0.769406;1957.17;-6622.753;-4665.583;328.77768;0.0;0.0;1838.2656
870.315;0.9529803;0.7712122;1958.1309;-6621.921;-4663.79;336.8169;0.0;0.0;1838.2656
870.32;0.95320934;0.7715521;1959.0225;-6622.169;-4663.1465;336.90802;0.0;0.0;1838.2656
870.325;0.95341176;0.77066624;1959.8333;-6623.141;-4663.3076;330.40143;0.0;0.0;1838.2656
870.33;0.9536053;0.76863325;1960.6523;-6624.866;-4664.214;317.55154;0.0;0.0;1838.2656
870.335;0.95381033;0.76502174;1961.5088;-6627.92;-4666.411;295.92206;0.0;0.0;1838.2656
870.34;0.9540094;0.7605987;1962.2642;-6631.0425;-4668.7783;270.01904;0.0;0.0;1838.2656
870.345;0.9541482;0.7554288;1962.6914;-6634.6616;-4671.97;240.65344;0.0;0.0;1838.2656
870.35;0.9541829;0.7497278;1962.7234;-6638.4893;-4675.7656;209.14952;0.0;0.0;1838.2656
870.355;0.9541407;0.7440068;1962.5566;-6642.1475;-4679.591;177.93303;0.0;0.0;1838.2656
870.36;0.9540961;0.73828286;1962.4711;-6645.461;-4682.9897;146.53789;0.0;0.0;1838.2656
870.365;0.95410687;0.73221076;1962.6736;-6649.2466;-4686.573;112.64657;0.0;0.0;1838.2656
870.37;0.95420617;0.72545177;1963.2119;-6653.501;-4690.289;74.29533;0.0;0.0;1838.2656
870.375;0.95437384;0.71759933;1964.0039;-6658.742;-4694.7383;29.406698;0.0;0.0;1838.2656
870.38;0.9545769;0.7084548;1964.803;-6665.0166;-4700.214;-22.62177;0.0;0.0;1838.2656
870.385;0.95472366;0.6987585;1965.3231;-6671.5625;-4706.2393;-77.13502;0.0;0.0;1838.2656
870.39;0.95478195;0.6883749;1965.5321;-6678.6143;-4713.082;-134.81674;0.0;0.0;1838.2656
870.395;0.95478356;0.67810416;1965.6409;-6685.3945;-4719.754;-191.67511;0.0;0.0;1838.2656
870.4;0.95480007;0.66744083;1965.804;-6692.744;-4726.9404;-250.80742;0.0;0.0;1838.2656
870.405;0.9548221;0.65708315;1965.8811;-6699.6045;-4733.7236;-308.08194;0.0;0.0;1838.2656
870.41;0.95478433;0.64704776;1965.5754;-6706.501;-4740.926;-362.81406;0.0;0.0;1838.2656
870.415;0.95461524;0.6380574;1964.6676;-6712.2646;-4747.597;-410.5782;0.0;0.0;1838.2656
870.42;0.9542894;0.63138026;1963.1426;-6716.385;-4753.242;-444.35138;0.0;0.0;1838.2656
870.425;0.95383936;0.62719595;1961.1892;-6718.5244;-4757.335;-463.5202;0.0;0.0;1838.2656
870.43;0.9533311;0.6258981;1959.1519;-6718.6836;-4759.5317;-466.60257;0.0;0.0;1838.2656
870.435;0.9528716;0.6272975;1957.4917;-6717.0347;-4759.543;-455.56503;0.0;0.0;1838.2656
870.44;0.9525725;0.6302271;1956.581;-6714.8813;-4758.3003;-437.58768;0.0;0.0;1838.2656
870.445;0.9524823;0.6342424;1956.4578;-6712.158;-4755.7;-415.1973;0.0;0.0;1838.2656
870.45;0.9525437;0.6381545;1956.7255;-6710.252;-4753.5264;-394.15854;0.0;0.0;1838.2656
870.455;0.9526109;0.6423324;1956.7898;-6708.177;-4751.3867;-371.2471;0.0;0.0;1838.2656
870.46;0.9525518;0.6470372;1956.2964;-6705.886;-4749.59;-344.31415;0.0;0.0;1838.2656
870.465;0.9523498;0.65305036;1955.3099;-6702.407;-4747.097;-309.1799;0.0;0.0;1838.2656
870.47;0.95206946;0.6603147;1954.1497;-6698.1074;-4743.958;-266.79782;0.0;0.0;1838.2656
870.475;0.9518029;0.6691702;1953.1398;-6692.4385;-4739.299;-215.94179;0.0;0.0;1838.2656
870.48;0.9516107;0.67867106;1952.4602;-6686.2344;-4733.7744;-162.18745;0.0;0.0;1838.2656
870.485;0.95151377;0.6885292;1952.1777;-6679.713;-4727.535;-107.256714;0.0;0.0;1838.2656
870.49;0.95152533;0.69808215;1952.4153;-6673.1924;-4720.7773;-55.04946;0.0;0.0;1838.2656
870.495;0.95169526;0.7060551;1953.4087;-6668.1025;-4714.694;-13.067031;0.0;0.0;1838.2656
870.5;0.9520865;0.71179765;1955.4214;-6664.78;-4709.3584;14.576792;0.0;0.0;1838.2656
870.505;0.9527423;0.7140564;1958.3965;-6663.8804;-4705.484;21.082853;0.0;0.0;1838.2656
870.51;0.9535523;0.7118005;1961.6387;-6666.657;-4705.0186;2.1580753;0.0;0.0;1838.2656
870.515;0.95426214;0.7063174;1964.0427;-6671.37;-4707.327;-32.88841;0.0;0.0;1838.2656
870.52;0.95461184;0.69892263;1964.8118;-6677.0547;-4712.243;-75.20732;0.0;0.0;1838.2656
870.525;0.95452404;0.69186854;1963.9133;-6681.787;-4717.874;-112.312035;0.0;0.0;1838.2656
870.53;0.95409584;0.6865312;1961.8624;-6685.0073;-4723.145;-137.64476;0.0;0.0;1838.2656
870.535;0.9534929;0.6840145;1959.3129;-6685.7827;-4726.4697;-146.42467;0.0;0.0;1838.2656
870.54;0.9528673;0.6847535;1956.9009;-6683.8604;-4726.9595;-137.52551;0.0;0.0;1838.2656
870.545;0.95237184;0.68773764;1955.1979;-6680.4766;-4725.279;-117.662445;0.0;0.0;1838.2656
870.55;0.95211565;0.6920709;1954.5391;-6676.2197;-4721.6807;-92.44753;0.0;0.0;1838.2656
870.555;0.9521297;0.6962519;1954.8916;-6672.542;-4717.6504;-70.0954;0.0;0.0;1838.2656
870.56;0.95234275;0.69971883;1955.8538;-6669.546;-4713.6924;-52.900166;0.0;0.0;1838.2656
870.565;0.95262045;0.70210534;1956.9004;-6667.4478;-4710.5474;-41.832397;0.0;0.0;1838.2656
870.57;0.9528526;0.70333385;1957.7378;-6666.507;-4708.769;-36.732395;0.0;0.0;1838.2656
870.575;0.9530261;0.7037551;1958.3851;-6666.1255;-4707.74;-35.703903;0.0;0.0;1838.2656
870.58;0.9531645;0.70368;1958.9159;-6666.3564;-4707.4404;-37.179768;0.0;0.0;1838.2656
870.585;0.9532745;0.70307004;1959.2814;-6667.207;-4707.926;-41.274395;0.0;0.0;1838.2656
870.59;0.95332783;0.7024683;1959.4272;-6668.0405;-4708.6133;-44.884777;0.0;0.0;1838.2656
870.595;0.95333385;0.7022435;1959.4282;-6668.5103;-4709.082;-46.126038;0.0;0.0;1838.2656
870.6;0.95331776;0.7021401;1959.3113;-6669.2183;-4709.907;-46.46266;0.0;0.0;1838.2656
870.605;0.9532563;0.7025616;1958.9353;-6669.624;-4710.6885;-43.386055;0.0;0.0;1838.2656
870.61;0.95310664;0.70392835;1958.2115;-6669.3154;-4711.104;-34.40137;0.0;0.0;1838.2656
870.615;0.9528841;0.7065148;1957.285;-6668.043;-4710.758;-18.284521;0.0;0.0;1838.2656
870.62;0.95265615;0.7102578;1956.4714;-6665.885;-4709.413;3.9849086;0.0;0.0;1838.2656
870.625;0.9525031;0.7146961;1956.0332;-6663.3926;-4707.3594;29.337307;0.0;0.0;1838.2656
870.63;0.9524647;0.71961164;1956.0768;-6660.253;-4704.1763;56.358616;0.0;0.0;1838.2656
870.635;0.95254433;0.7236672;1956.5961;-6658.162;-4701.566;77.685524;0.0;0.0;1838.2656
870.64;0.9527274;0.7266227;1957.4692;-6656.881;-4699.4116;92.238235;0.0;0.0;1838.2656
870.645;0.9529602;0.72823;1958.4216;-6656.5938;-4698.172;99.19728;0.0;0.0;1838.2656
870.65;0.9531641;0.728607;1959.1857;-6656.9565;-4697.771;99.74822;0.0;0.0;1838.2656
870.655;0.95330364;0.7279763;1959.7363;-6658.005;-4698.2686;95.16903;0.0;0.0;1838.2656
870.66;0.9534173;0.7264229;1960.2968;-6659.6426;-4699.3457;85.48119;0.0;0.0;1838.2656
870.665;0.9535739;0.7237886;1961.0591;-6661.993;-4700.934;69.42897;0.0;0.0;1838.2656
870.67;0.95378053;0.720217;1961.908;-6664.8604;-4702.952;48.034378;0.0;0.0;1838.2656
870.675;0.9539618;0.7153449;1962.5242;-6668.9463;-4706.422;19.93342;0.0;0.0;1838.2656
870.68;0.9540426;0.71012926;1962.6648;-6673.078;-4710.413;-9.110798;0.0;0.0;1838.2656
870.685;0.95399016;0.70551014;1962.2554;-6676.4717;-4714.2163;-33.76576;0.0;0.0;1838.2656
870.69;0.9538027;0.70196754;1961.2422;-6679.017;-4717.775;-51.2761;0.0;0.0;1838.2656
870.695;0.9534568;0.7003155;1959.5632;-6680.045;-4720.4814;-57.028816;0.0;0.0;1838.2656
870.7;0.95295763;0.7014044;1957.3458;-6678.8477;-4721.502;-46.588753;0.0;0.0;1838.2656
870.705;0.9523805;0.70536417;1955.0115;-6675.536;-4720.5244;-20.082956;0.0;0.0;1838.2656
870.71;0.95186496;0.7122976;1953.1523;-6669.8384;-4716.686;21.871918;0.0;0.0;1838.2656
870.715;0.95155406;0.72064036;1952.2874;-6663.4116;-4711.124;69.610435;0.0;0.0;1838.2656
870.72;0.9515394;0.72879297;1952.6609;-6658.012;-4705.3516;113.82341;0.0;0.0;1838.2656
870.725;0.95182353;0.7359755;1954.0984;-6653.3853;-4699.287;150.55879;0.0;0.0;1838.2656
870.73;0.9522899;0.74077404;1956.0046;-6651.0664;-4695.0615;173.20909;0.0;0.0;1838.2656
870.735;0.95275635;0.74373204;1957.6556;-6649.885;-4692.229;186.21985;0.0;0.0;1838.2656
870.74;0.95306396;0.7449637;1958.5466;-6649.962;-4691.415;191.23012;0.0;0.0;1838.2656
870.745;0.9531528;0.7457257;1958.6682;-6650.081;-4691.413;195.18918;0.0;0.0;1838.2656
870.75;0.953103;0.74637896;1958.4425;-6650.1797;-4691.7373;199.24324;0.0;0.0;1838.2656
870.755;0.95304745;0.747296;1958.3999;-6649.5596;-4691.1597;204.3856;0.0;0.0;1838.2656
870.76;0.9531026;0.7475578;1958.8865;-6649.38;-4690.493;204.85658;0.0;0.0;1838.2656
870.765;0.95330024;0.7464673;1959.8857;-6650.329;-4690.4434;196.84387;0.0;0.0;1838.2656
870.77;0.95358646;0.74360234;1961.1118;-6652.6846;-4691.5728;178.59215;0.0;0.0;1838.2656
870.775;0.95387405;0.73881376;1962.2168;-6656.4287;-4694.212;149.97409;0.0;0.0;1838.2656
870.78;0.95408624;0.7327708;1962.9237;-6660.869;-4697.9453;115.23455;0.0;0.0;1838.2656
870.785;0.954173;0.72617155;1963.0393;-6665.2437;-4702.204;78.60993;0.0;0.0;1838.2656
870.79;0.95409304;0.71987617;1962.4127;-6669.205;-4706.7925;45.145306;0.0;0.0;1838.2656
870.795;0.95382553;0.7148033;1961.0371;-6671.748;-4710.711;19.920584;0.0;0.0;1838.2656
870.8;0.9534001;0.7116917;1959.1667;-6672.378;-4713.211;6.501646;0.0;0.0;1838.2656
870.805;0.9529235;0.7109571;1957.296;-6671.001;-4713.705;6.192149;0.0;0.0;1838.2656
870.81;0.95252943;0.7116317;1955.9431;-6668.752;-4712.8086;12.618144;0.0;0.0;1838.2656
870.815;0.95231867;0.71348137;1955.3696;-6665.4194;-4710.05;23.96539;0.0;0.0;1838.2656
870.82;0.9522945;0.715349;1955.4431;-6662.2686;-4706.825;34.11825;0.0;0.0;1838.2656
870.825;0.95237976;0.71657866;1955.8713;-6659.4985;-4703.627;40.043232;0.0;0.0;1838.2656
870.83;0.95251477;0.7171135;1956.5197;-6657.2637;-4700.744;41.6961;0.0;0.0;1838.2656
870.835;0.9527082;0.7163576;1957.4978;-6656.0513;-4698.5537;35.57099;0.0;0.0;1838.2656
870.84;0.95300126;0.7140308;1958.8694;-6656.0645;-4697.1953;19.996069;0.0;0.0;1838.2656
870.845;0.95336497;0.709591;1960.3805;-6657.956;-4697.5757;-7.510909;0.0;0.0;1838.2656
870.85;0.9536922;0.70338005;1961.5399;-6661.103;-4699.563;-44.081623;0.0;0.0;1838.2656
870.855;0.9538575;0.69674623;1961.9583;-6664.2715;-4702.3135;-81.50246;0.0;0.0;1838.2656
870.86;0.95382136;0.68990535;1961.5916;-6667.468;-4705.876;-118.49524;0.0;0.0;1838.2656
870.865;0.9536178;0.68401504;1960.6809;-6669.923;-4709.242;-149.15787;0.0;0.0;1838.2656
870.87;0.95333606;0.6796279;1959.5288;-6671.131;-4711.602;-171.04793;0.0;0.0;1838.2656
870.875;0.95303035;0.6769204;1958.3192;-6671.2563;-4712.937;-183.55975;0.0;0.0;1838.2656
870.88;0.9527341;0.6756829;1957.1736;-6670.257;-4713.083;-188.09306;0.0;0.0;1838.2656
870.885;0.9524732;0.6760368;1956.2549;-6668.212;-4711.957;-184.30418;0.0;0.0;1838.2656
870.89;0.9523051;0.67750436;1955.7885;-6665.4097;-4709.621;-175.2781;0.0;0.0;1838.2656
870.895;0.95227516;0.679213;1955.8922;-6662.861;-4706.9688;-166.06287;0.0;0.0;1838.2656
870.9;0.9523839;0.6805538;1956.5127;-6661.1084;-4704.5957;-159.9094;0.0;0.0;1838.2656
870.905;0.9525929;0.68127614;1957.4109;-6660.2236;-4702.8125;-157.72226;0.0;0.0;1838.2656
870.91;0.9528158;0.68128616;1958.1855;-6659.824;-4701.6387;-159.21648;0.0;0.0;1838.2656
870.915;0.9529465;0.681026;1958.4988;-6659.823;-4701.324;-161.27745;0.0;0.0;1838.2656
870.92;0.9529402;0.68096;1958.2612;-6659.8403;-4701.579;-161.1663;0.0;0.0;1838.2656
870.925;0.9528151;0.68163484;1957.647;-6659.428;-4701.7812;-156.21623;0.0;0.0;1838.2656
870.93;0.95264184;0.6836252;1956.8937;-6657.8105;-4700.917;-143.73314;0.0;0.0;1838.2656
870.935;0.952458;0.6868051;1956.1144;-6655.4297;-4699.3154;-124.63805;0.0;0.0;1838.2656
870.94;0.95227665;0.69094914;1955.3302;-6652.1196;-4696.7896;-100.216286;0.0;0.0;1838.2656
870.945;0.952096;0.6960088;1954.6;-6648.252;-4693.652;-70.85281;0.0;0.0;1838.2656
870.95;0.95195496;0.7015552;1954.1263;-6644.2095;-4690.083;-39.318172;0.0;0.0;1838.2656
870.955;0.9519139;0.70746493;1954.1572;-6639.6357;-4685.4785;-6.7889557;0.0;0.0;1838.2656
870.96;0.9520281;0.7126147;1954.8939;-6635.9424;-4681.0483;20.137686;0.0;0.0;1838.2656
870.965;0.95233166;0.71583605;1956.4377;-6633.8965;-4677.459;34.815025;0.0;0.0;1838.2656
870.97;0.9528277;0.7163519;1958.7279;-6634.223;-4675.495;33.079433;0.0;0.0;1838.2656
870.975;0.9534646;0.71375775;1961.3795;-6636.9707;-4675.5913;13.469905;0.0;0.0;1838.2656
870.98;0.95408195;0.7079997;1963.5972;-6642.3965;-4678.7993;-22.719915;0.0;0.0;1838.2656
870.985;0.9544507;0.7009899;1964.5112;-6648.3633;-4683.852;-63.205513;0.0;0.0;1838.2656
870.99;0.95440704;0.6942134;1963.7036;-6653.941;-4690.2373;-98.96135;0.0;0.0;1838.2656
870.995;0.9539542;0.69015235;1961.4056;-6656.8467;-4695.441;-116.76115;0.0;0.0;1838.2656
871.0;0.9532262;0.69006985;1958.2288;-6656.4497;-4698.2207;-110.862526;0.0;0.0;1838.2656
871.005;0.95239335;0.69435585;1954.8698;-6652.6045;-4697.735;-80.50796;0.0;0.0;1838.2656
871.01;0.95161873;0.7026878;1951.9135;-6645.9585;-4694.045;-28.646387;0.0;0.0;1838.2656
871.015;0.951016;0.71402115;1949.7854;-6637.3003;-4687.5146;38.110836;0.0;0.0;1838.2656
871.02;0.95066625;0.72714454;1948.742;-6627.4946;-4678.753;112.57064;0.0;0.0;1838.2656
871.025;0.950595;0.74077547;1948.7769;-6617.719;-4668.9424;187.67252;0.0;0.0;1838.2656
871.03;0.95076305;0.75331503;1949.7527;-6608.9263;-4659.174;254.8741;0.0;0.0;1838.2656
871.035;0.9511403;0.7636594;1951.557;-6602.082;-4650.525;308.3126;0.0;0.0;1838.2656
871.04;0.9517006;0.77090436;1954.0518;-6597.8193;-4643.7676;343.27756;0.0;0.0;1838.2656
871.045;0.9523921;0.7741533;1956.9567;-6596.751;-4639.7944;355.3848;0.0;0.0;1838.2656
871.05;0.9531189;0.77390105;1959.8356;-6597.9014;-4638.066;348.23584;0.0;0.0;1838.2656
871.055;0.953769;0.7700004;1962.2961;-6601.7246;-4639.4287;321.8034;0.0;0.0;1838.2656
871.06;0.9542723;0.76322335;1964.1184;-6607.5454;-4643.427;280.78494;0.0;0.0;1838.2656
871.065;0.9545977;0.7547729;1965.1807;-6614.1553;-4648.9746;232.05779;0.0;0.0;1838.2656
871.07;0.9547178;0.7454809;1965.3386;-6621.3247;-4655.9863;180.49857;0.0;0.0;1838.2656
871.075;0.95459497;0.73684305;1964.464;-6627.485;-4663.021;134.61165;0.0;0.0;1838.2656
871.08;0.9542174;0.7301506;1962.6407;-6631.718;-4669.077;101.35071;0.0;0.0;1838.2656
871.085;0.9536582;0.72629505;1960.2524;-6633.384;-4673.1313;84.86488;0.0;0.0;1838.2656
871.09;0.9530459;0.7252133;1957.9326;-6632.986;-4675.053;83.53867;0.0;0.0;1838.2656
871.095;0.9525659;0.7265155;1956.45;-6630.65;-4674.2;93.685326;0.0;0.0;1838.2656
871.1;0.952394;0.72853285;1956.3625;-6628.0947;-4671.7324;104.985466;0.0;0.0;1838.2656
871.105;0.9525912;0.72908145;1957.687;-6627.499;-4669.812;105.3621;0.0;0.0;1838.2656
871.11;0.9530661;0.72719795;1959.8298;-6629.314;-4669.4844;90.6894;0.0;0.0;1838.2656
871.115;0.95360744;0.722808;1961.96;-6632.9844;-4671.0244;62.219494;0.0;0.0;1838.2656
871.12;0.9540402;0.7163097;1963.5199;-6638.279;-4674.759;23.262733;0.0;0.0;1838.2656
871.125;0.9542953;0.708448;1964.3651;-6644.5127;-4680.1475;-21.783348;0.0;0.0;1838.2656
871.13;0.95438886;0.7001366;1964.6263;-6650.983;-4686.3564;-68.14155;0.0;0.0;1838.2656
871.135;0.9543772;0.692153;1964.5323;-6657.124;-4692.592;-111.98155;0.0;0.0;1838.2656
871.14;0.9543136;0.68448156;1964.252;-6663.133;-4698.881;-153.72714;0.0;0.0;1838.2656
