time;temperature;pressure;kinetic_energy;potential_energy;total_energy;virial;msd;diffusion;volume
1035.005;0.88717395;0.56711876;1823.8279;-6715.3105;-4891.4824;-520.11096;0.0;0.0;1838.2656
1035.01;0.8875458;0.5657428;1825.2855;-6717.3887;-4892.103;-530.6144;0.0;0.0;1838.2656
1035.015;0.88784206;0.5631275;1826.3186;-6720.1846;-4893.866;-547.1033;0.0;0.0;1838.2656
1035.02;0.88799804;0.55956095;1826.7314;-6723.5415;-4896.81;-567.59796;0.0;0.0;1838.2656
1035.025;0.88799614;0.5560827;1826.5398;-6726.6826;-4900.1426;-586.39624;0.0;0.0;1838.2656
1035.03;0.88787407;0.5531055;1825.9448;-6729.199;-4903.2544;-601.62537;0.0;0.0;1838.2656
1035.035;0.88769567;0.55092007;1825.2255;-6730.9473;-4905.7217;-612.2388;0.0;0.0;1838.2656
1035.04;0.8875306;0.5495216;1824.6357;-6732.167;-4907.5312;-618.77136;0.0;0.0;1838.2656
1035.045;0.8874291;0.54822624;1824.3708;-6733.546;-4909.175;-625.3854;0.0;0.0;1838.2656
1035.05;0.8874282;0.5471686;1824.5325;-6734.54;-4910.008;-631.5413;0.0;0.0;1838.2656
1035.055;0.88753206;0.54544616;1825.1001;-6736.21;-4911.11;-642.1753;0.0;0.0;1838.2656
1035.06;0.88771725;0.5428545;1825.943;-6738.51;-4912.567;-658.1538;0.0;0.0;1838.2656
1035.065;0.887936;0.5389121;1826.8323;-6742.0684;-4915.2363;-681.6736;0.0;0.0;1838.2656
1035.07;0.88812417;0.53399336;1827.5107;-6746.4624;-4918.9517;-710.1565;0.0;0.0;1838.2656
1035.075;0.88822544;0.52883476;1827.7761;-6750.682;-4922.9062;-739.1361;0.0;0.0;1838.2656
1035.08;0.88820195;0.52359825;1827.486;-6755.064;-4927.578;-767.4341;0.0;0.0;1838.2656
1035.085;0.88802785;0.5194515;1826.5394;-6758.4824;-4931.943;-788.4095;0.0;0.0;1838.2656
1035.09;0.88768756;0.51724863;1824.9097;-6759.9033;-4934.9937;-797.29803;0.0;0.0;1838.2656
1035.095;0.8871913;0.5175084;1822.7084;-6759.495;-4936.7866;-791.46313;0.0;0.0;1838.2656
1035.1;0.88659364;0.52100736;1820.1908;-6756.1387;-4935.9478;-767.1317;0.0;0.0;1838.2656
1035.105;0.88597053;0.52756584;1817.706;-6750.6226;-4932.9165;-725.9937;0.0;0.0;1838.2656
1035.11;0.88541824;0.53702986;1815.6289;-6742.614;-4926.985;-669.64734;0.0;0.0;1838.2656
1035.115;0.8850171;0.54832757;1814.2373;-6733.2827;-4919.0454;-604.55945;0.0;0.0;1838.2656
1035.12;0.884813;0.56010026;1813.6538;-6724.0205;-4910.3667;-538.4685;0.0;0.0;1838.2656
1035.125;0.88481045;0.57176256;1813.8921;-6715.014;-4901.122;-474.62964;0.0;0.0;1838.2656
1035.13;0.8850092;0.58211094;1814.989;-6706.99;-4892.001;-419.7544;0.0;0.0;1838.2656
1035.135;0.8854245;0.59024966;1816.992;-6700.605;-4883.6133;-378.87708;0.0;0.0;1838.2656
1035.14;0.8860516;0.5946611;1819.8171;-6697.4287;-4877.6113;-360.19913;0.0;0.0;1838.2656
1035.145;0.8868321;0.5951956;1823.0552;-6696.991;-4873.936;-363.7276;0.0;0.0;1838.2656
1035.15;0.8876075;0.5916203;1825.9839;-6699.7266;-4873.7427;-389.30173;0.0;0.0;1838.2656
1035.155;0.88818866;0.58498734;1827.9207;-6704.557;-4876.6367;-429.75504;0.0;0.0;1838.2656
1035.16;0.8884566;0.57708055;1828.5431;-6709.865;-4881.3223;-474.60416;0.0;0.0;1838.2656
1035.165;0.888402;0.5694266;1827.9802;-6714.678;-4886.698;-515.68854;0.0;0.0;1838.2656
1035.17;0.88811797;0.5632466;1826.6636;-6717.9287;-4891.265;-547.1366;0.0;0.0;1838.2656
1035.175;0.88772815;0.5588753;1825.1057;-6719.874;-4894.7686;-568.1275;0.0;0.0;1838.2656
1035.18;0.88735497;0.55666524;1823.7329;-6720.2373;-4896.5044;-577.5701;0.0;0.0;1838.2656
1035.185;0.8870728;0.5559521;1822.7488;-6719.684;-4896.9355;-579.5347;0.0;0.0;1838.2656
1035.19;0.8868925;0.55641663;1822.1221;-6718.338;-4896.216;-575.71954;0.0;0.0;1838.2656
1035.195;0.8867801;0.55752003;1821.7244;-6716.858;-4895.134;-568.8391;0.0;0.0;1838.2656
1035.2;0.88671136;0.55931485;1821.5051;-6714.9067;-4893.4014;-558.50244;0.0;0.0;1838.2656
1035.205;0.88669217;0.5610151;1821.5546;-6713.3506;-4891.796;-549.22455;0.0;0.0;1838.2656
1035.21;0.88675994;0.56247777;1821.9741;-6712.338;-4890.364;-541.99756;0.0;0.0;1838.2656
1035.215;0.8869183;0.5632832;1822.7103;-6712.053;-4889.343;-539.0281;0.0;0.0;1838.2656
1035.22;0.88712776;0.56313646;1823.5623;-6712.3633;-4888.801;-541.54144;0.0;0.0;1838.2656
1035.225;0.88732874;0.56225467;1824.3243;-6713.3887;-4889.0645;-547.9284;0.0;0.0;1838.2656
1035.23;0.88748735;0.56077063;1824.8853;-6715.004;-4890.1187;-557.23425;0.0;0.0;1838.2656
1035.235;0.8875852;0.5587759;1825.1703;-6716.834;-4891.6636;-568.80493;0.0;0.0;1838.2656
1035.24;0.8876022;0.55674857;1825.0891;-6718.912;-4893.823;-579.8229;0.0;0.0;1838.2656
1035.245;0.8875189;0.55552626;1824.59;-6719.967;-4895.377;-585.5655;0.0;0.0;1838.2656
1035.25;0.887337;0.55501014;1823.736;-6720.6377;-4896.902;-586.7037;0.0;0.0;1838.2656
1035.255;0.8870944;0.5556875;1822.7319;-6720.487;-4897.755;-580.96027;0.0;0.0;1838.2656
1035.26;0.886857;0.55788517;1821.8643;-6718.6846;-4896.8203;-567.105;0.0;0.0;1838.2656
1035.265;0.88669515;0.5606293;1821.3619;-6716.796;-4895.434;-550.967;0.0;0.0;1838.2656
1035.27;0.8866418;0.56369513;1821.3335;-6714.626;-4893.2925;-534.0027;0.0;0.0;1838.2656
1035.275;0.88670504;0.5662192;1821.7078;-6713.0757;-4891.368;-520.8316;0.0;0.0;1838.2656
1035.28;0.88683164;0.5680863;1822.2462;-6711.935;-4889.689;-511.6119;0.0;0.0;1838.2656
1035.285;0.8869531;0.56946886;1822.6328;-6711.208;-4888.575;-504.7604;0.0;0.0;1838.2656
1035.29;0.886988;0.5703852;1822.5974;-6710.733;-4888.1357;-499.63635;0.0;0.0;1838.2656
1035.295;0.8868962;0.57164955;1822.0352;-6709.916;-4887.881;-491.5391;0.0;0.0;1838.2656
1035.3;0.886684;0.5741962;1821.0635;-6707.659;-4886.5957;-475.55133;0.0;0.0;1838.2656
1035.305;0.88641053;0.57803196;1819.929;-6704.162;-4884.2334;-452.12897;0.0;0.0;1838.2656
1035.31;0.8861389;0.5827636;1818.8787;-6700.121;-4881.242;-423.93427;0.0;0.0;1838.2656
1035.315;0.8859232;0.5888039;1818.1099;-6694.8037;-4876.694;-389.08594;0.0;0.0;1838.2656
1035.32;0.8858065;0.5948907;1817.824;-6689.9263;-4872.1025;-354.94656;0.0;0.0;1838.2656
1035.325;0.8858385;0.6008919;1818.2299;-6684.87;-4866.64;-322.6629;0.0;0.0;1838.2656
1035.33;0.88606083;0.60542184;1819.4188;-6681.35;-4861.931;-300.05927;0.0;0.0;1838.2656
1035.335;0.88646287;0.6078377;1821.2778;-6679.474;-4858.1963;-290.45425;0.0;0.0;1838.2656
1035.34;0.8869876;0.607837;1823.5146;-6679.5713;-4856.0566;-294.93152;0.0;0.0;1838.2656
1035.345;0.8875427;0.6049249;1825.7036;-6682.088;-4856.3843;-315.36923;0.0;0.0;1838.2656
1035.35;0.8880104;0.59952074;1827.3496;-6686.54;-4859.1904;-348.46396;0.0;0.0;1838.2656
1035.355;0.88827425;0.59316796;1828.0385;-6691.5806;-4863.542;-384.87595;0.0;0.0;1838.2656
1035.36;0.8882676;0.5870163;1827.6056;-6696.302;-4868.6963;-417.93555;0.0;0.0;1838.2656
1035.365;0.8879968;0.5826952;1826.1843;-6699.2725;-4873.088;-438.92294;0.0;0.0;1838.2656
1035.37;0.8875366;0.5806439;1824.1687;-6700.6846;-4876.5156;-446.20435;0.0;0.0;1838.2656
1035.375;0.88701177;0.5815801;1822.0769;-6699.7153;-4877.6387;-436.85754;0.0;0.0;1838.2656
1035.38;0.88654804;0.5849255;1820.3964;-6697.108;-4876.7114;-415.0477;0.0;0.0;1838.2656
1035.385;0.88624686;0.59002006;1819.4519;-6693.4014;-4873.949;-385.0629;0.0;0.0;1838.2656
1035.39;0.8861521;0.5956728;1819.3503;-6689.6084;-4870.258;-353.6861;0.0;0.0;1838.2656
1035.395;0.8862592;0.60079145;1820.0259;-6686.6934;-4866.6675;-326.80905;0.0;0.0;1838.2656
1035.4;0.8865327;0.60444653;1821.2816;-6685.203;-4863.9214;-309.16327;0.0;0.0;1838.2656
1035.405;0.88690335;0.60641855;1822.8262;-6685.0264;-4862.2;-301.3773;0.0;0.0;1838.2656
1035.41;0.887294;0.6064279;1824.3267;-6686.34;-4862.013;-304.3267;0.0;0.0;1838.2656
1035.415;0.8876266;0.6045631;1825.5764;-6688.9927;-4863.416;-317.11017;0.0;0.0;1838.2656
1035.42;0.88789165;0.6012693;1826.656;-6692.454;-4865.798;-337.434;0.0;0.0;1838.2656
1035.425;0.8881429;0.5963819;1827.758;-6697.2896;-4869.5312;-366.59113;0.0;0.0;1838.2656
1035.43;0.8884069;0.5902671;1828.8287;-6702.578;-4873.7495;-402.4541;0.0;0.0;1838.2656
1035.435;0.8886122;0.5826766;1829.4933;-6709.2935;-4879.8003;-445.64368;0.0;0.0;1838.2656
1035.44;0.8886536;0.5750868;1829.4083;-6715.791;-4886.383;-487.32983;0.0;0.0;1838.2656
1035.445;0.8884904;0.56807953;1828.5;-6721.7334;-4893.2334;-524.1568;0.0;0.0;1838.2656
1035.45;0.88814324;0.5631576;1826.9297;-6725.536;-4898.6064;-548.1596;0.0;0.0;1838.2656
1035.455;0.8876777;0.5606679;1824.9526;-6727.3193;-4902.3667;-557.9359;0.0;0.0;1838.2656
1035.46;0.88715607;0.56056684;1822.8228;-6727.2734;-4904.4507;-554.2332;0.0;0.0;1838.2656
1035.465;0.88663924;0.5637948;1820.8037;-6724.183;-4903.3794;-532.3936;0.0;0.0;1838.2656
1035.47;0.88619506;0.56851065;1819.1455;-6720.494;-4901.3486;-503.0702;0.0;0.0;1838.2656
1035.475;0.88587165;0.5749412;1817.9966;-6715.6797;-4897.683;-465.309;0.0;0.0;1838.2656
1035.48;0.88568664;0.58249724;1817.4142;-6709.854;-4892.44;-422.4745;0.0;0.0;1838.2656
1035.485;0.8856398;0.59013647;1817.3242;-6704.171;-4886.8467;-380.16553;0.0;0.0;1838.2656
1035.49;0.8856867;0.5973147;1817.5193;-6698.8916;-4881.372;-340.96912;0.0;0.0;1838.2656
1035.495;0.88576406;0.60403234;1817.7632;-6693.9497;-4876.1865;-304.41064;0.0;0.0;1838.2656
1035.5;0.88582456;0.6104412;1817.9329;-6689.0635;-4871.131;-269.4065;0.0;0.0;1838.2656
1035.505;0.88586855;0.61631924;1818.1525;-6684.352;-4866.1997;-237.42937;0.0;0.0;1838.2656
1035.51;0.8859613;0.6214817;1818.667;-6680.142;-4861.475;-209.98843;0.0;0.0;1838.2656
1035.515;0.8861509;0.6256805;1819.567;-6676.54;-4856.973;-188.63327;0.0;0.0;1838.2656
1035.52;0.88642025;0.62821144;1820.6975;-6674.2656;-4853.5684;-176.93658;0.0;0.0;1838.2656
1035.525;0.88670534;0.6292709;1821.7799;-6673.1094;-4851.3296;-173.25842;0.0;0.0;1838.2656
1035.53;0.88694;0.62915033;1822.6194;-6672.721;-4850.1016;-175.60265;0.0;0.0;1838.2656
1035.535;0.8871057;0.62783194;1823.2173;-6673.5146;-4850.2974;-184.0689;0.0;0.0;1838.2656
1035.54;0.8872298;0.6260982;1823.7141;-6674.3066;-4850.593;-194.6237;0.0;0.0;1838.2656
1035.545;0.8873519;0.6239482;1824.2772;-6675.2725;-4850.995;-207.60674;0.0;0.0;1838.2656
1035.55;0.8875089;0.6209586;1824.9802;-6677.156;-4852.176;-225.49971;0.0;0.0;1838.2656
1035.555;0.88768995;0.61714214;1825.7404;-6679.738;-4853.9976;-248.067;0.0;0.0;1838.2656
1035.56;0.8878616;0.6124343;1826.4084;-6683.2363;-4856.828;-275.36606;0.0;0.0;1838.2656
1035.565;0.88798654;0.60712063;1826.8684;-6687.303;-4860.4346;-305.59;0.0;0.0;1838.2656
1035.57;0.8880541;0.6016388;1827.1069;-6691.5;-4864.393;-336.29813;0.0;0.0;1838.2656
1035.575;0.8880735;0.5957685;1827.1807;-6696.33;-4869.1494;-368.81912;0.0;0.0;1838.2656
1035.58;0.88806343;0.5904383;1827.1437;-6700.451;-4873.3076;-398.13998;0.0;0.0;1838.2656
1035.585;0.88802874;0.5851413;1826.9631;-6704.707;-4877.744;-426.9907;0.0;0.0;1838.2656
1035.59;0.8879446;0.5806113;1826.5312;-6708.365;-4881.834;-451.10916;0.0;0.0;1838.2656
1035.595;0.8877849;0.5769483;1825.7437;-6711.2344;-4885.4907;-469.7346;0.0;0.0;1838.2656
1035.6;0.88753134;0.57491726;1824.6254;-6712.3633;-4887.738;-478.69876;0.0;0.0;1838.2656
1035.605;0.88722456;0.57424134;1823.3896;-6712.6543;-4889.2646;-479.95493;0.0;0.0;1838.2656
1035.61;0.8869331;0.5748825;1822.3428;-6712.0234;-4889.6807;-474.32532;0.0;0.0;1838.2656
1035.615;0.8867354;0.57646286;1821.7621;-6710.493;-4888.731;-464.4485;0.0;0.0;1838.2656
1035.62;0.886679;0.5781282;1821.7771;-6709.1855;-4887.408;-455.29446;0.0;0.0;1838.2656
1035.625;0.8867694;0.57895714;1822.3627;-6708.5464;-4886.1836;-451.89426;0.0;0.0;1838.2656
1035.63;0.8869834;0.57849973;1823.405;-6709.0034;-4885.5986;-456.50153;0.0;0.0;1838.2656
1035.635;0.88728833;0.57636344;1824.7991;-6710.699;-4885.9004;-471.07074;0.0;0.0;1838.2656
1035.64;0.8876638;0.5718327;1826.4548;-6714.3677;-4887.913;-499.3684;0.0;0.0;1838.2656
1035.645;0.8880812;0.5648138;1828.1981;-6720.0225;-4891.824;-541.5629;0.0;0.0;1838.2656
1035.65;0.8884743;0.5561349;1829.6841;-6726.6143;-4896.93;-592.3971;0.0;0.0;1838.2656
1035.655;0.8887394;0.5457763;1830.4644;-6734.4277;-4903.9634;-651.08325;0.0;0.0;1838.2656
1035.66;0.8887695;0.5354348;1830.2058;-6741.866;-4911.66;-707.59766;0.0;0.0;1838.2656
1035.665;0.8885309;0.52655387;1828.8865;-6747.661;-4918.7744;-753.9352;0.0;0.0;1838.2656
1035.67;0.8880654;0.5198584;1826.7963;-6751.58;-4924.7837;-786.67896;0.0;0.0;1838.2656
1035.675;0.8874842;0.5159247;1824.436;-6753.4062;-4928.97;-803.65216;0.0;0.0;1838.2656
1035.68;0.8869225;0.5149358;1822.3578;-6752.8613;-4930.5034;-804.94946;0.0;0.0;1838.2656
1035.685;0.88650817;0.5160592;1821.0288;-6750.8643;-4929.8354;-796.09595;0.0;0.0;1838.2656
1035.69;0.88632745;0.5178222;1820.6792;-6749.0923;-4928.413;-785.674;0.0;0.0;1838.2656
1035.695;0.88638353;0.5196186;1821.1471;-6747.413;-4926.266;-776.7035;0.0;0.0;1838.2656
1035.7;0.8865733;0.5208301;1821.9202;-6746.318;-4924.3975;-771.568;0.0;0.0;1838.2656
1035.705;0.8867476;0.52126133;1822.4109;-6746.021;-4923.6104;-770.1716;0.0;0.0;1838.2656
1035.71;0.88678426;0.5217;1822.2678;-6745.7925;-4923.5244;-767.46606;0.0;0.0;1838.2656
1035.715;0.8866556;0.52301484;1821.5222;-6744.681;-4923.159;-758.7238;0.0;0.0;1838.2656
1035.72;0.88642055;0.52561384;1820.4685;-6742.6455;-4922.177;-742.28345;0.0;0.0;1838.2656
1035.725;0.8861652;0.5296812;1819.4646;-6739.3896;-4919.925;-717.8449;0.0;0.0;1838.2656
1035.73;0.8859658;0.5350239;1818.7058;-6735.132;-4916.426;-686.8633;0.0;0.0;1838.2656
1035.735;0.88582414;0.5410743;1818.1443;-6730.6104;-4912.466;-652.37384;0.0;0.0;1838.2656
1035.74;0.885711;0.54761285;1817.7;-6725.908;-4908.208;-615.42645;0.0;0.0;1838.2656
1035.745;0.8856276;0.5549132;1817.4731;-6720.34;-4902.8667;-574.7125;0.0;0.0;1838.2656
1035.75;0.88562685;0.56168526;1817.617;-6715.785;-4898.168;-537.6536;0.0;0.0;1838.2656
1035.755;0.8857194;0.56843615;1818.0143;-6710.875;-4892.861;-501.2188;0.0;0.0;1838.2656
1035.76;0.88582546;0.57458854;1818.3098;-6706.4326;-4888.123;-467.88046;0.0;0.0;1838.2656
1035.765;0.8858558;0.5804676;1818.2241;-6702.1904;-4883.9663;-435.28757;0.0;0.0;1838.2656
1035.77;0.88578206;0.5866755;1817.8049;-6697.1343;-4879.329;-400.21365;0.0;0.0;1838.2656
1035.775;0.88567114;0.59298944;1817.4154;-6692.1157;-4874.7;-364.6146;0.0;0.0;1838.2656
1035.78;0.88563746;0.5994557;1817.5424;-6686.55;-4869.0073;-329.2083;0.0;0.0;1838.2656
1035.785;0.88579464;0.6047174;1818.5173;-6682.209;-4863.6914;-302.14124;0.0;0.0;1838.2656
1035.79;0.88617104;0.60765725;1820.3544;-6679.7246;-4859.37;-289.6023;0.0;0.0;1838.2656
1035.795;0.8867243;0.60736525;1822.734;-6680.1265;-4857.3926;-295.97214;0.0;0.0;1838.2656
1035.8;0.887329;0.60424083;1825.1051;-6682.299;-4857.194;-317.94467;0.0;0.0;1838.2656
1035.805;0.88784236;0.5982068;1826.9408;-6686.9434;-4860.0024;-354.89264;0.0;0.0;1838.2656
1035.81;0.88816416;0.5907423;1827.9167;-6692.171;-4864.254;-398.00986;0.0;0.0;1838.2656
1035.815;0.8882519;0.5827467;1827.9695;-6697.717;-4869.747;-442.20944;0.0;0.0;1838.2656
1035.82;0.8881314;0.575648;1827.2441;-6702.016;-4874.772;-479.90652;0.0;0.0;1838.2656
1035.825;0.8878523;0.5701561;1825.9485;-6705.0723;-4879.124;-507.60193;0.0;0.0;1838.2656
1035.83;0.8874704;0.5665393;1824.3257;-6706.699;-4882.3735;-524.30237;0.0;0.0;1838.2656
1035.835;0.8870482;0.56515765;1822.6155;-6706.7866;-4884.171;-528.5012;0.0;0.0;1838.2656
1035.84;0.88664;0.5662113;1821.0116;-6705.0063;-4883.9946;-519.48303;0.0;0.0;1838.2656
1035.845;0.88628346;0.5694353;1819.6764;-6701.6074;-4881.931;-499.03265;0.0;0.0;1838.2656
1035.85;0.886018;0.57395464;1818.7422;-6697.621;-4878.879;-472.24115;0.0;0.0;1838.2656
1035.855;0.8858664;0.5795389;1818.2981;-6693.07;-4874.7715;-440.55692;0.0;0.0;1838.2656
1035.86;0.88584656;0.58514714;1818.4321;-6688.9453;-4870.513;-409.89648;0.0;0.0;1838.2656
1035.865;0.88597924;0.5900285;1819.189;-6685.8765;-4866.6875;-384.4903;0.0;0.0;1838.2656
1035.87;0.8862556;0.5938642;1820.4858;-6683.551;-4863.065;-365.93115;0.0;0.0;1838.2656
1035.875;0.8866349;0.5956473;1822.1104;-6683.1313;-4861.021;-359.34683;0.0;0.0;1838.2656
1035.88;0.88704956;0.59548515;1823.8022;-6684.0723;-4860.27;-363.62485;0.0;0.0;1838.2656
1035.885;0.8874452;0.5932843;1825.38;-6686.7104;-4861.3306;-378.91763;0.0;0.0;1838.2656
1035.89;0.8877915;0.5892373;1826.7136;-6690.667;-4863.953;-403.90326;0.0;0.0;1838.2656
1035.895;0.88805765;0.5837954;1827.6841;-6695.6045;-4867.9204;-435.85486;0.0;0.0;1838.2656
1035.9;0.8882202;0.5776484;1828.2031;-6700.9453;-4872.742;-470.79248;0.0;0.0;1838.2656
1035.905;0.8882647;0.57103854;1828.2281;-6706.571;-4878.343;-507.29486;0.0;0.0;1838.2656
1035.91;0.8881884;0.56494844;1827.7664;-6711.713;-4883.9463;-539.9569;0.0;0.0;1838.2656
1035.915;0.88800246;0.55966353;1826.8865;-6716.2;-4889.3135;-567.34235;0.0;0.0;1838.2656
1035.92;0.8877324;0.5560188;1825.7083;-6719.27;-4893.5615;-585.0855;0.0;0.0;1838.2656
1035.925;0.88741606;0.55381054;1824.4207;-6721.408;-4896.9873;-594.68866;0.0;0.0;1838.2656
1035.93;0.8871094;0.55329543;1823.2549;-6722.0703;-4898.8154;-595.1979;0.0;0.0;1838.2656
1035.935;0.8868673;0.5543267;1822.3878;-6721.5576;-4899.17;-587.7765;0.0;0.0;1838.2656
1035.94;0.8867135;0.55592555;1821.8743;-6720.8804;-4899.006;-577.93207;0.0;0.0;1838.2656
1035.945;0.88664144;0.55808944;1821.6133;-6719.8174;-4898.204;-565.4766;0.0;0.0;1838.2656
1035.95;0.8866019;0.56037825;1821.393;-6718.7583;-4897.365;-552.41364;0.0;0.0;1838.2656
1035.955;0.88653785;0.56343025;1820.9836;-6716.8374;-4895.8535;-534.764;0.0;0.0;1838.2656
1035.96;0.8864006;0.56706023;1820.2639;-6714.463;-4894.199;-513.3059;0.0;0.0;1838.2656
1035.965;0.88618773;0.5716781;1819.2673;-6711.178;-4891.911;-485.84607;0.0;0.0;1838.2656
1035.97;0.8859232;0.57763875;1818.1349;-6706.706;-4888.5713;-450.70935;0.0;0.0;1838.2656
1035.975;0.8856515;0.58464277;1817.0171;-6701.6045;-4884.5874;-409.84802;0.0;0.0;1838.2656
1035.98;0.88539886;0.5931047;1816.008;-6694.8945;-4878.8867;-361.16412;0.0;0.0;1838.2656
1035.985;0.8851878;0.60233426;1815.2534;-6687.532;-4872.279;-308.7559;0.0;0.0;1838.2656
1035.99;0.88507324;0.61216277;1815.0322;-6679.3374;-4864.305;-254.11122;0.0;0.0;1838.2656
1035.995;0.88513833;0.6207336;1815.6631;-6672.666;-4857.003;-208.10628;0.0;0.0;1838.2656
1036.0;0.88544595;0.62737095;1817.3312;-6667.4043;-4850.073;-174.83893;0.0;0.0;1838.2656
1036.005;0.88600683;0.6306297;1819.9713;-6664.9434;-4844.972;-162.14783;0.0;0.0;1838.2656
1036.01;0.88676107;0.62982124;1823.2672;-6665.619;-4842.352;-173.19835;0.0;0.0;1838.2656
1036.015;0.8876038;0.62432057;1826.74;-6669.839;-4843.0986;-210.47879;0.0;0.0;1838.2656
1036.02;0.88840204;0.6146263;1829.8367;-6676.795;-4846.958;-270.13406;0.0;0.0;1838.2656
1036.025;0.8890261;0.6014323;1832.0784;-6686.4385;-4854.3604;-347.37973;0.0;0.0;1838.2656
1036.03;0.88938934;0.58588755;1833.2456;-6697.694;-4864.448;-435.44037;0.0;0.0;1838.2656
1036.035;0.88949317;0.5698163;1833.4463;-6708.7;-4875.254;-524.4714;0.0;0.0;1838.2656
1036.04;0.88940597;0.55403465;1833.0289;-6719.324;-4886.2954;-610.6694;0.0;0.0;1838.2656
1036.045;0.88923216;0.5391411;1832.3733;-6729.1997;-4896.826;-691.4928;0.0;0.0;1838.2656
1036.05;0.8890433;0.5251798;1831.6677;-6738.554;-4906.8867;-767.07556;0.0;0.0;1838.2656
1036.055;0.8888486;0.512511;1830.8702;-6747.0576;-4916.1875;-835.3465;0.0;0.0;1838.2656
1036.06;0.8886107;0.5013685;1829.803;-6754.4404;-4924.6377;-894.66034;0.0;0.0;1838.2656
1036.065;0.88828254;0.4924427;1828.2687;-6760.2334;-4931.965;-940.81586;0.0;0.0;1838.2656
1036.07;0.8878252;0.48618135;1826.2314;-6763.8994;-4937.668;-971.2715;0.0;0.0;1838.2656
1036.075;0.8872741;0.48297188;1823.9207;-6765.334;-4941.413;-984.3494;0.0;0.0;1838.2656
1036.08;0.8867169;0.48259735;1821.7788;-6764.869;-4943.0903;-982.1312;0.0;0.0;1838.2656
1036.085;0.8862798;0.48457494;1820.2604;-6762.785;-4942.525;-968.18835;0.0;0.0;1838.2656
1036.09;0.88603896;0.4879943;1819.5437;-6759.7734;-4940.2295;-947.8979;0.0;0.0;1838.2656
1036.095;0.8859841;0.4916884;1819.5232;-6756.796;-4937.2725;-927.4847;0.0;0.0;1838.2656
1036.1;0.8860696;0.49492836;1820.0624;-6754.412;-4934.3496;-910.69543;0.0;0.0;1838.2656
1036.105;0.8862797;0.4970365;1821.0962;-6753.0435;-4931.9473;-901.1371;0.0;0.0;1838.2656
1036.11;0.8865929;0.4973358;1822.4663;-6753.4795;-4931.013;-902.2268;0.0;0.0;1838.2656
1036.115;0.8869406;0.49621028;1823.782;-6754.574;-4930.792;-911.0651;0.0;0.0;1838.2656
1036.12;0.8871941;0.4938994;1824.5123;-6756.615;-4932.103;-925.2697;0.0;0.0;1838.2656
1036.125;0.88723636;0.49133185;1824.2986;-6758.591;-4934.292;-939.0019;0.0;0.0;1838.2656
