time;temperature;pressure;kinetic_energy;potential_energy;total_energy;virial;msd;diffusion;volume
2860.005;0.15626587;-0.4839338;321.0889;-9600.256;-9279.167;-3310.9744;0.0;0.0;1838.2656
2860.01;0.15621874;-0.48384038;320.89514;-9599.892;-9278.996;-3310.0718;0.0;0.0;1838.2656
2860.015;0.15617028;-0.4836225;320.70248;-9599.625;-9278.923;-3308.4849;0.0;0.0;1838.2656
2860.02;0.15612456;-0.48269683;320.52533;-9598.436;-9277.91;-3303.0256;0.0;0.0;1838.2656
2860.025;0.15608463;-0.48197982;320.37433;-9597.917;-9277.543;-3298.7695;0.0;0.0;1838.2656
2860.03;0.15605222;-0.48100266;320.25723;-9597.061;-9276.804;-3293.1462;0.0;0.0;1838.2656
2860.035;0.15602925;-0.47978365;320.18506;-9595.983;-9275.799;-3286.2795;0.0;0.0;1838.2656
2860.04;0.15601888;-0.4784876;320.1632;-9594.787;-9274.624;-3279.0884;0.0;0.0;1838.2656
2860.045;0.1560203;-0.4773697;320.18915;-9594.021;-9273.832;-3272.975;0.0;0.0;1838.2656
2860.05;0.15603283;-0.47632986;320.25757;-9593.299;-9273.041;-3267.3777;0.0;0.0;1838.2656
2860.055;0.15605448;-0.47532165;320.36206;-9592.529;-9272.167;-3262.0264;0.0;0.0;1838.2656
2860.06;0.156084;-0.47470388;320.49023;-9592.352;-9271.861;-3258.876;0.0;0.0;1838.2656
2860.065;0.1561165;-0.47392464;320.63455;-9591.71;-9271.075;-3254.8672;0.0;0.0;1838.2656
2860.07;0.15615305;-0.4735994;320.7897;-9591.543;-9270.753;-3253.3838;0.0;0.0;1838.2656
2860.075;0.15619028;-0.4733904;320.94586;-9591.474;-9270.527;-3252.5437;0.0;0.0;1838.2656
2860.08;0.15622671;-0.4733627;321.0974;-9591.353;-9270.255;-3252.694;0.0;0.0;1838.2656
2860.085;0.15626124;-0.47360662;321.23663;-9591.623;-9270.387;-3254.3174;0.0;0.0;1838.2656
2860.09;0.15629129;-0.47409114;321.36377;-9592.037;-9270.674;-3257.244;0.0;0.0;1838.2656
2860.095;0.15631974;-0.47462112;321.47998;-9592.316;-9270.836;-3260.3992;0.0;0.0;1838.2656
2860.1;0.15634428;-0.47548762;321.5832;-9592.989;-9271.406;-3265.384;0.0;0.0;1838.2656
2860.105;0.15636611;-0.47643453;321.6772;-9593.545;-9271.868;-3270.794;0.0;0.0;1838.2656
2860.11;0.15638606;-0.47766212;321.75903;-9594.539;-9272.78;-3277.7275;0.0;0.0;1838.2656
2860.115;0.15640196;-0.47909266;321.82797;-9595.641;-9273.8125;-3285.7546;0.0;0.0;1838.2656
2860.12;0.15641543;-0.48049566;321.8863;-9596.523;-9274.637;-3293.6086;0.0;0.0;1838.2656
2860.125;0.15642606;-0.4820104;321.933;-9597.495;-9275.5625;-3302.0554;0.0;0.0;1838.2656
2860.13;0.15643361;-0.48316324;321.961;-9597.662;-9275.701;-3308.469;0.0;0.0;1838.2656
2860.135;0.15643479;-0.48501933;321.96686;-9599.023;-9277.057;-3318.7168;0.0;0.0;1838.2656
2860.14;0.15643139;-0.48665723;321.9441;-9599.97;-9278.025;-3327.704;0.0;0.0;1838.2656
2860.145;0.15641846;-0.4882491;321.88348;-9600.783;-9278.899;-3336.3616;0.0;0.0;1838.2656
2860.15;0.1563968;-0.48969877;321.7862;-9601.446;-9279.66;-3344.1616;0.0;0.0;1838.2656
2860.155;0.15636629;-0.49099326;321.6571;-9601.9375;-9280.28;-3351.0422;0.0;0.0;1838.2656
2860.16;0.15632974;-0.4920689;321.50415;-9602.185;-9280.681;-3356.6682;0.0;0.0;1838.2656
2860.165;0.15628831;-0.49314702;321.33508;-9602.585;-9281.25;-3362.276;0.0;0.0;1838.2656
2860.17;0.15624474;-0.4939076;321.16055;-9602.658;-9281.498;-3366.121;0.0;0.0;1838.2656
2860.175;0.1562012;-0.4946584;320.99118;-9603.004;-9282.013;-3369.923;0.0;0.0;1838.2656
2860.18;0.15616073;-0.49517456;320.83673;-9603.024;-9282.1875;-3372.4607;0.0;0.0;1838.2656
2860.185;0.15612487;-0.49527127;320.70117;-9602.525;-9281.824;-3372.7227;0.0;0.0;1838.2656
2860.19;0.15609379;-0.49538198;320.58517;-9602.212;-9281.627;-3373.1013;0.0;0.0;1838.2656
2860.195;0.15606754;-0.49533987;320.48798;-9601.766;-9281.277;-3372.6748;0.0;0.0;1838.2656
2860.2;0.15604551;-0.49515778;320.40765;-9601.132;-9280.725;-3371.5098;0.0;0.0;1838.2656
2860.205;0.15602744;-0.49508342;320.3426;-9600.865;-9280.522;-3370.9697;0.0;0.0;1838.2656
2860.21;0.15601277;-0.49481001;320.2812;-9600.287;-9280.006;-3369.339;0.0;0.0;1838.2656
2860.215;0.15599625;-0.49442172;320.21948;-9599.643;-9279.423;-3367.0742;0.0;0.0;1838.2656
2860.22;0.15598126;-0.49404815;320.15546;-9598.997;-9278.842;-3364.886;0.0;0.0;1838.2656
2860.225;0.15596351;-0.49347803;320.082;-9598.258;-9278.176;-3361.595;0.0;0.0;1838.2656
2860.23;0.1559442;-0.4926899;319.99847;-9597.182;-9277.184;-3357.0818;0.0;0.0;1838.2656
2860.235;0.15592188;-0.49171418;319.9086;-9595.854;-9275.945;-3351.521;0.0;0.0;1838.2656
2860.24;0.15589987;-0.49074274;319.82068;-9594.652;-9274.832;-3345.9878;0.0;0.0;1838.2656
2860.245;0.1558792;-0.489865;319.74304;-9593.773;-9274.03;-3340.992;0.0;0.0;1838.2656
2860.25;0.15586306;-0.48866555;319.68893;-9592.356;-9272.668;-3334.269;0.0;0.0;1838.2656
2860.255;0.15585467;-0.48750654;319.67688;-9590.953;-9271.276;-3327.8533;0.0;0.0;1838.2656
2860.26;0.15585959;-0.48642474;319.7204;-9589.66;-9269.939;-3321.9746;0.0;0.0;1838.2656
2860.265;0.15587837;-0.48584223;319.82394;-9589.088;-9269.264;-3318.9692;0.0;0.0;1838.2656
2860.27;0.1559123;-0.48520392;319.9875;-9588.192;-9268.205;-3315.7761;0.0;0.0;1838.2656
2860.275;0.15595962;-0.48499626;320.2002;-9587.751;-9267.551;-3315.0562;0.0;0.0;1838.2656
2860.28;0.1560164;-0.484944;320.4507;-9587.233;-9266.782;-3315.269;0.0;0.0;1838.2656
2860.285;0.15608092;-0.4853694;320.7196;-9587.145;-9266.425;-3318.153;0.0;0.0;1838.2656
2860.29;0.15614513;-0.4862617;320.9865;-9587.293;-9266.307;-3323.6074;0.0;0.0;1838.2656
2860.295;0.15620752;-0.48746032;321.24103;-9587.783;-9266.542;-3330.7268;0.0;0.0;1838.2656
2860.3;0.15626468;-0.48912397;321.46802;-9588.572;-9267.1045;-3340.3552;0.0;0.0;1838.2656
2860.305;0.1563129;-0.4908748;321.6598;-9589.177;-9267.517;-3350.3943;0.0;0.0;1838.2656
2860.31;0.15635237;-0.4930842;321.80978;-9590.246;-9268.437;-3362.8787;0.0;0.0;1838.2656
2860.315;0.15637995;-0.4954905;321.91583;-9591.547;-9269.631;-3376.361;0.0;0.0;1838.2656
2860.32;0.15639792;-0.49809858;321.97607;-9593.004;-9271.027;-3390.8645;0.0;0.0;1838.2656
2860.325;0.156403;-0.5006457;321.98865;-9594.31;-9272.321;-3404.9368;0.0;0.0;1838.2656
2860.33;0.15639803;-0.5031461;321.95694;-9595.521;-9273.564;-3418.6626;0.0;0.0;1838.2656
2860.335;0.15638176;-0.5055321;321.87793;-9596.728;-9274.85;-3431.6626;0.0;0.0;1838.2656
2860.34;0.15635422;-0.50766015;321.75452;-9597.637;-9275.882;-3443.1516;0.0;0.0;1838.2656
2860.345;0.15631698;-0.5097843;321.59503;-9598.755;-9277.16;-3454.5469;0.0;0.0;1838.2656
2860.35;0.15627262;-0.5117144;321.41077;-9599.814;-9278.403;-3464.8225;0.0;0.0;1838.2656
2860.355;0.15622431;-0.5131402;321.21262;-9600.365;-9279.152;-3472.289;0.0;0.0;1838.2656
2860.36;0.15617421;-0.5142665;321.01288;-9600.844;-9279.831;-3478.101;0.0;0.0;1838.2656
2860.365;0.15612607;-0.51496834;320.82104;-9600.768;-9279.946;-3481.5876;0.0;0.0;1838.2656
2860.37;0.1560806;-0.5153619;320.6452;-9600.55;-9279.904;-3483.4067;0.0;0.0;1838.2656
2860.375;0.15604092;-0.51554346;320.49557;-9600.418;-9279.923;-3484.1086;0.0;0.0;1838.2656
2860.38;0.15600869;-0.51548344;320.3798;-9600.062;-9279.682;-3483.546;0.0;0.0;1838.2656
2860.385;0.15598567;-0.51522815;320.29974;-9599.666;-9279.366;-3481.978;0.0;0.0;1838.2656
2860.39;0.15597078;-0.51477927;320.25385;-9599.001;-9278.747;-3479.411;0.0;0.0;1838.2656
2860.395;0.15596414;-0.5141458;320.23306;-9598.3125;-9278.079;-3475.8757;0.0;0.0;1838.2656
2860.4;0.15596105;-0.5137456;320.23132;-9598.193;-9277.962;-3473.6653;0.0;0.0;1838.2656
2860.405;0.15596305;-0.5132798;320.24347;-9598.037;-9277.794;-3471.1208;0.0;0.0;1838.2656
2860.41;0.15596633;-0.51262206;320.2575;-9597.59;-9277.332;-3467.5215;0.0;0.0;1838.2656
2860.415;0.15596876;-0.5118894;320.27124;-9597.147;-9276.876;-3463.5085;0.0;0.0;1838.2656
2860.42;0.1559714;-0.5113097;320.2796;-9597.027;-9276.748;-3460.3281;0.0;0.0;1838.2656
2860.425;0.15597089;-0.51057774;320.27698;-9596.81;-9276.532;-3456.2864;0.0;0.0;1838.2656
2860.43;0.15596835;-0.5095386;320.26804;-9596.0625;-9275.795;-3450.5378;0.0;0.0;1838.2656
2860.435;0.15596476;-0.50868434;320.25952;-9595.807;-9275.547;-3445.8098;0.0;0.0;1838.2656
2860.44;0.15596278;-0.50780845;320.258;-9595.523;-9275.266;-3440.9763;0.0;0.0;1838.2656
2860.445;0.15596282;-0.5067113;320.26596;-9594.871;-9274.605;-3434.942;0.0;0.0;1838.2656
2860.45;0.15596579;-0.50568897;320.29077;-9594.52;-9274.229;-3429.3535;0.0;0.0;1838.2656
2860.455;0.1559742;-0.50469774;320.34;-9594.256;-9273.916;-3423.9854;0.0;0.0;1838.2656
2860.46;0.15598905;-0.5037992;320.4145;-9594.006;-9273.592;-3419.1792;0.0;0.0;1838.2656
2860.465;0.15600939;-0.5029544;320.51138;-9593.83;-9273.318;-3414.714;0.0;0.0;1838.2656
2860.47;0.15603463;-0.50217104;320.62097;-9593.529;-9272.908;-3410.613;0.0;0.0;1838.2656
2860.475;0.15606052;-0.5017158;320.73254;-9593.788;-9273.056;-3408.3257;0.0;0.0;1838.2656
2860.48;0.15608591;-0.5011928;320.8367;-9593.733;-9272.896;-3405.6501;0.0;0.0;1838.2656
2860.485;0.15610771;-0.5010417;320.9233;-9594.139;-9273.216;-3404.99;0.0;0.0;1838.2656
2860.49;0.15612401;-0.50098354;320.9867;-9594.57;-9273.584;-3404.7957;0.0;0.0;1838.2656
2860.495;0.15613438;-0.5010138;321.02716;-9595.068;-9274.041;-3405.0437;0.0;0.0;1838.2656
2860.5;0.1561395;-0.50105125;321.0478;-9595.464;-9274.416;-3405.2913;0.0;0.0;1838.2656
2860.505;0.15614043;-0.50127465;321.04962;-9596.063;-9275.014;-3406.527;0.0;0.0;1838.2656
2860.51;0.15613648;-0.5013712;321.03555;-9596.381;-9275.346;-3407.0312;0.0;0.0;1838.2656
2860.515;0.15612991;-0.5015285;321.00864;-9596.76;-9275.751;-3407.845;0.0;0.0;1838.2656
2860.52;0.15611987;-0.5016801;320.97284;-9596.964;-9275.991;-3408.6094;0.0;0.0;1838.2656
2860.525;0.1561091;-0.5018451;320.92865;-9597.281;-9276.353;-3409.4314;0.0;0.0;1838.2656
2860.53;0.1560951;-0.501988;320.8736;-9597.478;-9276.604;-3410.1091;0.0;0.0;1838.2656
2860.535;0.15607919;-0.5022252;320.8087;-9597.964;-9277.155;-3411.2876;0.0;0.0;1838.2656
2860.54;0.15606064;-0.5024298;320.734;-9598.257;-9277.522;-3412.2664;0.0;0.0;1838.2656
2860.545;0.15604043;-0.50231266;320.6521;-9597.946;-9277.294;-3411.4565;0.0;0.0;1838.2656
2860.55;0.1560187;-0.50226235;320.56787;-9597.894;-9277.326;-3411.0105;0.0;0.0;1838.2656
2860.555;0.15599792;-0.5022253;320.4909;-9598.039;-9277.548;-3410.652;0.0;0.0;1838.2656
2860.56;0.1559802;-0.50215346;320.42447;-9597.908;-9277.483;-3410.1233;0.0;0.0;1838.2656
2860.565;0.15596478;-0.5018873;320.37085;-9597.447;-9277.076;-3408.5483;0.0;0.0;1838.2656
2860.57;0.15595359;-0.50168604;320.33533;-9597.221;-9276.886;-3407.3672;0.0;0.0;1838.2656
2860.575;0.15594709;-0.50152665;320.31885;-9596.9375;-9276.619;-3406.4553;0.0;0.0;1838.2656
2860.58;0.1559452;-0.50139236;320.31885;-9596.709;-9276.391;-3405.7146;0.0;0.0;1838.2656
2860.585;0.15594666;-0.5011319;320.3354;-9596.247;-9275.912;-3404.3113;0.0;0.0;1838.2656
2860.59;0.15595269;-0.5011951;320.36838;-9596.21;-9275.842;-3404.7258;0.0;0.0;1838.2656
2860.595;0.15596204;-0.50135934;320.41406;-9596.187;-9275.772;-3405.723;0.0;0.0;1838.2656
2860.6;0.15597396;-0.501344;320.4707;-9595.85;-9275.379;-3405.752;0.0;0.0;1838.2656
2860.605;0.15598859;-0.5015814;320.53882;-9595.693;-9275.154;-3407.1973;0.0;0.0;1838.2656
2860.61;0.15600571;-0.50201595;320.61554;-9595.958;-9275.343;-3409.7468;0.0;0.0;1838.2656
2860.615;0.15602422;-0.5023869;320.69543;-9595.819;-9275.124;-3411.9526;0.0;0.0;1838.2656
2860.62;0.15604249;-0.5030468;320.77377;-9596.098;-9275.324;-3415.7485;0.0;0.0;1838.2656
2860.625;0.15605998;-0.50388676;320.8473;-9596.631;-9275.783;-3420.5276;0.0;0.0;1838.2656
2860.63;0.15607566;-0.50457895;320.91437;-9596.742;-9275.828;-3424.479;0.0;0.0;1838.2656
2860.635;0.15608974;-0.5055169;320.97165;-9597.295;-9276.323;-3429.7664;0.0;0.0;1838.2656
2860.64;0.15610048;-0.5065056;321.01672;-9597.755;-9276.738;-3435.309;0.0;0.0;1838.2656
2860.645;0.15610844;-0.5076134;321.04797;-9598.383;-9277.335;-3441.481;0.0;0.0;1838.2656
2860.65;0.1561123;-0.5086892;321.06348;-9598.992;-9277.929;-3447.4448;0.0;0.0;1838.2656
2860.655;0.15611254;-0.50973886;321.0611;-9599.486;-9278.425;-3453.2285;0.0;0.0;1838.2656
2860.66;0.15610762;-0.5106435;321.0383;-9599.816;-9278.778;-3458.1719;0.0;0.0;1838.2656
2860.665;0.15609798;-0.51173455;320.99796;-9600.443;-9279.445;-3464.1082;0.0;0.0;1838.2656
2860.67;0.15608451;-0.51249224;320.93802;-9600.705;-9279.767;-3468.1667;0.0;0.0;1838.2656
2860.675;0.15606546;-0.51335734;320.85895;-9601.24;-9280.381;-3472.7795;0.0;0.0;1838.2656
2860.68;0.15604296;-0.5140989;320.76276;-9601.629;-9280.866;-3476.6765;0.0;0.0;1838.2656
2860.685;0.15601577;-0.51467997;320.65106;-9602.018;-9281.366;-3479.6577;0.0;0.0;1838.2656
2860.69;0.15598607;-0.51509994;320.52698;-9602.16;-9281.633;-3481.7256;0.0;0.0;1838.2656
2860.695;0.15595335;-0.51522166;320.39487;-9602.136;-9281.741;-3482.1326;0.0;0.0;1838.2656
2860.7;0.15592045;-0.51523936;320.26468;-9602.049;-9281.784;-3481.9697;0.0;0.0;1838.2656
2860.705;0.15588921;-0.51510525;320.14465;-9601.801;-9281.656;-3480.9902;0.0;0.0;1838.2656
2860.71;0.1558619;-0.51470166;320.0445;-9601.318;-9281.273;-3478.5642;0.0;0.0;1838.2656
2860.715;0.15584093;-0.5141806;319.97485;-9600.656;-9280.682;-3475.5513;0.0;0.0;1838.2656
2860.72;0.15582874;-0.5136475;319.9405;-9599.957;-9280.017;-3472.5427;0.0;0.0;1838.2656
2860.725;0.15582505;-0.5130633;319.94214;-9599.295;-9279.353;-3469.3242;0.0;0.0;1838.2656
2860.73;0.15583017;-0.5124815;319.9741;-9598.581;-9278.607;-3466.1794;0.0;0.0;1838.2656
2860.735;0.15584059;-0.5120188;320.02704;-9597.987;-9277.96;-3463.734;0.0;0.0;1838.2656
2860.74;0.15585512;-0.5116676;320.08725;-9597.478;-9277.391;-3461.9175;0.0;0.0;1838.2656
2860.745;0.15586825;-0.5114863;320.13977;-9597.111;-9276.972;-3461.0227;0.0;0.0;1838.2656
2860.75;0.15587835;-0.51130146;320.17438;-9596.694;-9276.52;-3460.0725;0.0;0.0;1838.2656
2860.755;0.15588254;-0.5112983;320.18365;-9596.531;-9276.348;-3460.0735;0.0;0.0;1838.2656
2860.76;0.15588033;-0.51107794;320.16675;-9595.924;-9275.757;-3458.8245;0.0;0.0;1838.2656
2860.765;0.155872;-0.5111372;320.13013;-9595.965;-9275.835;-3459.078;0.0;0.0;1838.2656
2860.77;0.15586077;-0.5110972;320.08453;-9595.83;-9275.745;-3458.766;0.0;0.0;1838.2656
2860.775;0.15584865;-0.5108704;320.04175;-9595.451;-9275.409;-3457.43;0.0;0.0;1838.2656
2860.78;0.15583931;-0.5107711;320.01038;-9595.393;-9275.382;-3456.8196;0.0;0.0;1838.2656
2860.785;0.15583317;-0.51062214;319.99207;-9595.281;-9275.289;-3455.9614;0.0;0.0;1838.2656
2860.79;0.15583026;-0.51015675;319.9891;-9594.742;-9274.753;-3453.3892;0.0;0.0;1838.2656
2860.795;0.15583153;-0.5096216;320.0014;-9594.158;-9274.157;-3450.4624;0.0;0.0;1838.2656
2860.8;0.15583584;-0.50924593;320.02737;-9593.944;-9273.917;-3448.4426;0.0;0.0;1838.2656
2860.805;0.15584327;-0.5088245;320.0589;-9593.785;-9273.727;-3446.1816;0.0;0.0;1838.2656
2860.81;0.15585007;-0.5082239;320.08853;-9593.318;-9273.2295;-3442.9287;0.0;0.0;1838.2656
2860.815;0.15585633;-0.50777346;320.1168;-9593.313;-9273.196;-3440.501;0.0;0.0;1838.2656
2860.82;0.15586235;-0.5070794;320.1443;-9592.857;-9272.713;-3436.7288;0.0;0.0;1838.2656
2860.825;0.15586814;-0.50648963;320.169;-9592.861;-9272.692;-3433.5254;0.0;0.0;1838.2656
2860.83;0.15587296;-0.50574315;320.19434;-9592.607;-9272.413;-3429.4595;0.0;0.0;1838.2656
2860.835;0.15587912;-0.50509006;320.22647;-9592.631;-9272.404;-3425.9219;0.0;0.0;1838.2656
2860.84;0.15588732;-0.5045159;320.265;-9592.943;-9272.679;-3422.8328;0.0;0.0;1838.2656
2860.845;0.15589665;-0.50384814;320.31186;-9593.208;-9272.896;-3419.244;0.0;0.0;1838.2656
2860.85;0.15590885;-0.50299335;320.37143;-9593.259;-9272.888;-3414.649;0.0;0.0;1838.2656
2860.855;0.15592423;-0.5021759;320.44357;-9593.136;-9272.692;-3410.2854;0.0;0.0;1838.2656
2860.86;0.15594214;-0.5015155;320.52505;-9593.553;-9273.027;-3406.8062;0.0;0.0;1838.2656
2860.865;0.15596175;-0.50074345;320.61084;-9593.676;-9273.064;-3402.7202;0.0;0.0;1838.2656
2860.87;0.15598133;-0.50027007;320.69373;-9594.276;-9273.583;-3400.2751;0.0;0.0;1838.2656
2860.875;0.15599898;-0.49979988;320.76666;-9594.882;-9274.115;-3397.8281;0.0;0.0;1838.2656
2860.88;0.15601337;-0.49925935;320.82812;-9595.262;-9274.434;-3394.9702;0.0;0.0;1838.2656
2860.885;0.15602505;-0.49854508;320.871;-9595.405;-9274.534;-3391.117;0.0;0.0;1838.2656
2860.89;0.15603024;-0.4979965;320.89215;-9595.711;-9274.818;-3388.134;0.0;0.0;1838.2656
2860.895;0.15603124;-0.49767858;320.89258;-9596.471;-9275.578;-3386.3813;0.0;0.0;1838.2656
2860.9;0.15602626;-0.4970732;320.87012;-9596.812;-9275.941;-3382.998;0.0;0.0;1838.2656
2860.905;0.15601625;-0.4965735;320.82446;-9597.377;-9276.553;-3380.151;0.0;0.0;1838.2656
2860.91;0.15600002;-0.4962294;320.75208;-9598.203;-9277.451;-3378.1084;0.0;0.0;1838.2656
2860.915;0.15597713;-0.49533692;320.65698;-9598.229;-9277.571;-3372.9966;0.0;0.0;1838.2656
2860.92;0.15595031;-0.49433616;320.5421;-9598.174;-9277.632;-3367.2478;0.0;0.0;1838.2656
2860.925;0.15591834;-0.4932686;320.41388;-9598.113;-9277.699;-3361.104;0.0;0.0;1838.2656
2860.93;0.15588583;-0.4923213;320.28632;-9598.52;-9278.233;-3355.6248;0.0;0.0;1838.2656
2860.935;0.15585494;-0.49098557;320.16827;-9598.236;-9278.068;-3348.0222;0.0;0.0;1838.2656
2860.94;0.1558278;-0.4894317;320.07233;-9597.702;-9277.63;-3339.2612;0.0;0.0;1838.2656
2860.945;0.15580843;-0.48795277;320.01086;-9597.457;-9277.446;-3330.9822;0.0;0.0;1838.2656
2860.95;0.1557984;-0.48648494;319.98956;-9597.158;-9277.169;-3322.8447;0.0;0.0;1838.2656
2860.955;0.15579835;-0.48506343;320.00708;-9596.953;-9276.946;-3315.0403;0.0;0.0;1838.2656
2860.96;0.15580685;-0.48384583;320.05307;-9597.021;-9276.969;-3308.4175;0.0;0.0;1838.2656
2860.965;0.15581982;-0.48246843;320.1143;-9596.709;-9276.595;-3300.9438;0.0;0.0;1838.2656
2860.97;0.15583487;-0.48141348;320.17676;-9596.82;-9276.644;-3295.251;0.0;0.0;1838.2656
2860.975;0.1558474;-0.48016456;320.22485;-9596.518;-9276.293;-3288.4597;0.0;0.0;1838.2656
2860.98;0.15585479;-0.47930384;320.2439;-9596.741;-9276.497;-3283.751;0.0;0.0;1838.2656
2860.985;0.15585262;-0.47820085;320.22552;-9596.654;-9276.429;-3277.6316;0.0;0.0;1838.2656
2860.99;0.15584178;-0.47728628;320.16995;-9596.833;-9276.663;-3272.4768;0.0;0.0;1838.2656
2860.995;0.15582176;-0.476284;320.07953;-9596.853;-9276.773;-3266.7686;0.0;0.0;1838.2656
2861.0;0.1557946;-0.47521734;319.96658;-9596.887;-9276.92;-3260.6602;0.0;0.0;1838.2656
2861.005;0.1557645;-0.4739491;319.84558;-9596.715;-9276.869;-3253.4243;0.0;0.0;1838.2656
2861.01;0.15573458;-0.47257483;319.7289;-9596.447;-9276.719;-3245.612;0.0;0.0;1838.2656
2861.015;0.1557076;-0.4711581;319.63623;-9596.115;-9276.479;-3237.6135;0.0;0.0;1838.2656
2861.02;0.15569012;-0.4695594;319.5791;-9595.465;-9275.886;-3228.6829;0.0;0.0;1838.2656
2861.025;0.1556811;-0.4679041;319.56326;-9594.741;-9275.178;-3219.5225;0.0;0.0;1838.2656
2861.03;0.15568428;-0.46636972;319.59717;-9594.002;-9274.404;-3211.1287;0.0;0.0;1838.2656
2861.035;0.15569943;-0.4650283;319.6808;-9593.451;-9273.7705;-3203.898;0.0;0.0;1838.2656
2861.04;0.15572666;-0.46404397;319.81256;-9593.232;-9273.42;-3198.7334;0.0;0.0;1838.2656
2861.045;0.15576454;-0.46338448;319.98163;-9593.204;-9273.223;-3195.4346;0.0;0.0;1838.2656
2861.05;0.1558093;-0.4628816;320.179;-9593.102;-9272.923;-3193.056;0.0;0.0;1838.2656
2861.055;0.15585993;-0.46284646;320.39337;-9593.273;-9272.88;-3193.291;0.0;0.0;1838.2656
2861.06;0.1559118;-0.46337855;320.60925;-9594.097;-9273.487;-3196.657;0.0;0.0;1838.2656
2861.065;0.15596199;-0.46396092;320.8119;-9594.5205;-9273.709;-3200.2742;0.0;0.0;1838.2656
2861.07;0.15600626;-0.46501297;320.98706;-9595.324;-9274.337;-3206.4263;0.0;0.0;1838.2656
2861.075;0.15604228;-0.46633214;321.12634;-9596.223;-9275.097;-3213.9797;0.0;0.0;1838.2656
2861.08;0.15606824;-0.46790525;321.21875;-9597.26;-9276.041;-3222.8398;0.0;0.0;1838.2656
2861.085;0.15608105;-0.46964532;321.25986;-9598.465;-9277.205;-3232.5183;0.0;0.0;1838.2656
2861.09;0.15608193;-0.47133127;321.25134;-9599.388;-9278.137;-3241.7988;0.0;0.0;1838.2656
2861.095;0.15607078;-0.47308916;321.19638;-9600.445;-9279.249;-3251.3835;0.0;0.0;1838.2656
2861.1;0.15604925;-0.47482675;321.09818;-9601.525;-9280.427;-3260.7695;0.0;0.0;1838.2656
2861.105;0.15601756;-0.4765274;320.96478;-9602.597;-9281.632;-3269.8813;0.0;0.0;1838.2656
2861.11;0.15597935;-0.4777992;320.8054;-9603.092;-9282.286;-3276.5764;0.0;0.0;1838.2656
2861.115;0.15593563;-0.4789659;320.62494;-9603.701;-9283.076;-3282.6497;0.0;0.0;1838.2656
