time;temperature;pressure;kinetic_energy;potential_energy;total_energy;virial;msd;diffusion;volume
1270.005;0.79389244;0.33746547;1633.8279;-6809.3965;-5175.5684;-1406.6023;0.0;0.0;1838.2656
1270.01;0.7941641;0.33095244;1634.7681;-6814.33;-5179.562;-1444.4008;0.0;0.0;1838.2656
1270.015;0.7943184;0.32374454;1635.205;-6819.7036;-5184.4985;-1485.0245;0.0;0.0;1838.2656
1270.02;0.79434013;0.31648633;1635.118;-6824.926;-5189.8076;-1524.8783;0.0;0.0;1838.2656
1270.025;0.794239;0.30968773;1634.5447;-6829.884;-5195.339;-1561.2245;0.0;0.0;1838.2656
1270.03;0.794024;0.30435845;1633.5245;-6833.458;-5199.9336;-1588.5741;0.0;0.0;1838.2656
1270.035;0.7937086;0.30089742;1632.1249;-6835.3545;-5203.2295;-1604.8616;0.0;0.0;1838.2656
1270.04;0.7933212;0.29945308;1630.5198;-6835.696;-5205.176;-1609.6166;0.0;0.0;1838.2656
1270.045;0.7929251;0.30002105;1628.9941;-6834.662;-5205.668;-1603.4332;0.0;0.0;1838.2656
1270.05;0.7925956;0.30229598;1627.8135;-6832.4106;-5204.597;-1588.5261;0.0;0.0;1838.2656
1270.055;0.7923794;0.30554727;1627.1235;-6829.739;-5202.615;-1569.2161;0.0;0.0;1838.2656
1270.06;0.79229105;0.3093322;1626.9413;-6826.781;-5199.8394;-1547.9784;0.0;0.0;1838.2656
1270.065;0.7923196;0.31282532;1627.2024;-6824.375;-5197.173;-1529.2367;0.0;0.0;1838.2656
1270.07;0.79244274;0.31579208;1627.8486;-6822.3696;-5194.521;-1514.1681;0.0;0.0;1838.2656
1270.075;0.79265356;0.3178512;1628.8435;-6821.045;-5192.201;-1504.8022;0.0;0.0;1838.2656
1270.08;0.7929384;0.3184527;1630.1067;-6820.8916;-5190.785;-1504.0115;0.0;0.0;1838.2656
1270.085;0.7932666;0.31702805;1631.4714;-6822.7744;-5191.3027;-1514.5975;0.0;0.0;1838.2656
1270.09;0.7935838;0.31428537;1632.673;-6825.3975;-5192.7246;-1532.126;0.0;0.0;1838.2656
1270.095;0.7938147;0.31025606;1633.4049;-6829.21;-5195.805;-1555.8105;0.0;0.0;1838.2656
1270.1;0.7938917;0.30600867;1633.4434;-6832.9707;-5199.5273;-1579.3112;0.0;0.0;1838.2656
1270.105;0.7937832;0.30257922;1632.7012;-6835.8174;-5203.116;-1596.7394;0.0;0.0;1838.2656
1270.11;0.793492;0.30053002;1631.2968;-6837.5137;-5206.217;-1605.2316;0.0;0.0;1838.2656
1270.115;0.79308385;0.30056468;1629.5571;-6837.6143;-5208.057;-1601.5612;0.0;0.0;1838.2656
1270.12;0.7926592;0.3029411;1627.9458;-6835.615;-5207.6694;-1585.2329;0.0;0.0;1838.2656
1270.125;0.7923413;0.30675355;1626.9231;-6832.6963;-5205.7734;-1562.1627;0.0;0.0;1838.2656
1270.13;0.7922198;0.31091824;1626.7678;-6829.9033;-5203.1357;-1538.8848;0.0;0.0;1838.2656
1270.135;0.7923221;0.31464037;1627.4634;-6827.5664;-5200.103;-1519.749;0.0;0.0;1838.2656
1270.14;0.7925954;0.31675994;1628.6953;-6826.7363;-5198.041;-1510.5239;0.0;0.0;1838.2656
1270.145;0.79292953;0.3173695;1630.0126;-6827.039;-5197.0264;-1509.7969;0.0;0.0;1838.2656
1270.15;0.7932175;0.31661028;1630.9968;-6828.241;-5197.244;-1515.9523;0.0;0.0;1838.2656
1270.155;0.7933737;0.31500953;1631.4242;-6829.9883;-5198.564;-1525.6349;0.0;0.0;1838.2656
1270.16;0.7933892;0.31332222;1631.3501;-6831.5186;-5200.1685;-1534.7919;0.0;0.0;1838.2656
1270.165;0.79330915;0.31174803;1630.9844;-6833.08;-5202.0957;-1542.7416;0.0;0.0;1838.2656
1270.17;0.79319245;0.3108156;1630.5427;-6833.9873;-5203.4443;-1547.0006;0.0;0.0;1838.2656
1270.175;0.7930805;0.31049594;1630.1458;-6834.3354;-5204.1895;-1547.9694;0.0;0.0;1838.2656
1270.18;0.7929854;0.31091717;1629.8125;-6833.957;-5204.1445;-1544.98;0.0;0.0;1838.2656
1270.185;0.79290205;0.3115382;1629.4962;-6833.7;-5204.204;-1540.9226;0.0;0.0;1838.2656
1270.19;0.7928122;0.31287187;1629.127;-6832.8315;-5203.7046;-1532.8291;0.0;0.0;1838.2656
1270.195;0.7927035;0.3147971;1628.6603;-6831.6094;-5202.949;-1521.2784;0.0;0.0;1838.2656
1270.2;0.79256684;0.317392;1628.0701;-6830.001;-5201.9307;-1505.7878;0.0;0.0;1838.2656
1270.205;0.79240066;0.32116255;1627.3516;-6827.256;-5199.9043;-1483.5569;0.0;0.0;1838.2656
1270.21;0.792207;0.32572117;1626.5391;-6824.1924;-5197.6533;-1456.792;0.0;0.0;1838.2656
1270.215;0.7920062;0.33127958;1625.778;-6820.4414;-5194.6636;-1424.6163;0.0;0.0;1838.2656
1270.22;0.79185224;0.33777028;1625.3113;-6815.873;-5190.5615;-1387.8881;0.0;0.0;1838.2656
1270.225;0.791805;0.34431458;1625.3104;-6811.469;-5186.1587;-1351.7958;0.0;0.0;1838.2656
1270.23;0.7918766;0.35037166;1625.7542;-6807.617;-5181.8633;-1319.2798;0.0;0.0;1838.2656
1270.235;0.79203385;0.355366;1626.4646;-6804.8228;-5178.3584;-1293.158;0.0;0.0;1838.2656
1270.24;0.7922216;0.3597015;1627.2097;-6802.084;-5174.874;-1270.7386;0.0;0.0;1838.2656
1270.245;0.7923875;0.36278588;1627.8418;-6800.456;-5172.6143;-1254.9932;0.0;0.0;1838.2656
1270.25;0.7925185;0.36517742;1628.3533;-6798.895;-5170.542;-1242.8273;0.0;0.0;1838.2656
1270.255;0.79262877;0.36670747;1628.7952;-6797.836;-5169.041;-1235.2731;0.0;0.0;1838.2656
1270.26;0.79273164;0.36736298;1629.2434;-6797.389;-5168.1455;-1232.5546;0.0;0.0;1838.2656
1270.265;0.79284984;0.36716425;1629.7734;-6797.2275;-5167.454;-1234.7106;0.0;0.0;1838.2656
1270.27;0.7929952;0.36559263;1630.4247;-6798.1963;-5167.7715;-1244.6803;0.0;0.0;1838.2656
1270.275;0.793172;0.36323595;1631.19;-6799.255;-5168.065;-1259.2074;0.0;0.0;1838.2656
1270.28;0.79336804;0.35911083;1632.0068;-6801.909;-5169.9023;-1283.5905;0.0;0.0;1838.2656
1270.285;0.79356426;0.35390678;1632.7811;-6805.22;-5172.439;-1313.8384;0.0;0.0;1838.2656
1270.29;0.7937334;0.3475482;1633.4319;-6809.2417;-5175.8096;-1350.206;0.0;0.0;1838.2656
1270.295;0.7938628;0.34048247;1633.8756;-6813.6187;-5179.743;-1390.0596;0.0;0.0;1838.2656
1270.3;0.79392445;0.33295554;1634.0159;-6818.216;-5184.2;-1431.8496;0.0;0.0;1838.2656
1270.305;0.7939011;0.32585624;1633.7637;-6822.3047;-5188.541;-1470.4965;0.0;0.0;1838.2656
1270.31;0.79377174;0.31920302;1633.0747;-6825.9307;-5192.856;-1505.8097;0.0;0.0;1838.2656
1270.315;0.7935398;0.31407383;1631.9954;-6828.071;-5196.075;-1531.9374;0.0;0.0;1838.2656
1270.32;0.7932314;0.31064987;1630.6687;-6828.784;-5198.115;-1548.1665;0.0;0.0;1838.2656
1270.325;0.7928959;0.30873126;1629.3462;-6828.542;-5199.196;-1556.1022;0.0;0.0;1838.2656
1270.33;0.79260904;0.3083287;1628.3511;-6827.4287;-5199.0776;-1556.3322;0.0;0.0;1838.2656
1270.335;0.7924509;0.3088592;1627.9736;-6825.59;-5197.616;-1552.6515;0.0;0.0;1838.2656
1270.34;0.7924718;0.30913723;1628.323;-6824.6543;-5196.331;-1551.817;0.0;0.0;1838.2656
1270.345;0.79266113;0.30886686;1629.2798;-6824.1455;-5194.8657;-1555.2216;0.0;0.0;1838.2656
1270.35;0.7929613;0.3070485;1630.5781;-6825.2637;-5194.6855;-1567.8462;0.0;0.0;1838.2656
1270.355;0.7932971;0.30392948;1631.8909;-6827.574;-5195.6836;-1587.6724;0.0;0.0;1838.2656
1270.36;0.7935845;0.29962862;1632.8661;-6830.788;-5197.922;-1613.3412;0.0;0.0;1838.2656
1270.365;0.7937352;0.2949539;1633.1448;-6834.372;-5201.2275;-1639.6786;0.0;0.0;1838.2656
1270.37;0.79367054;0.2912151;1632.4861;-6836.8623;-5204.376;-1658.9801;0.0;0.0;1838.2656
1270.375;0.793369;0.28921312;1630.9385;-6838.091;-5207.1523;-1666.9254;0.0;0.0;1838.2656
1270.38;0.79289365;0.28978443;1628.8806;-6837.25;-5208.369;-1659.6589;0.0;0.0;1838.2656
1270.385;0.7923766;0.29313692;1626.8826;-6834.212;-5207.329;-1637.1746;0.0;0.0;1838.2656
1270.39;0.7919565;0.29846978;1625.4207;-6830.2266;-5204.8057;-1604.8411;0.0;0.0;1838.2656
1270.395;0.79170996;0.30545568;1624.6494;-6824.9385;-5200.289;-1564.7728;0.0;0.0;1838.2656
1270.4;0.7916177;0.31288913;1624.4236;-6819.692;-5195.2686;-1523.3271;0.0;0.0;1838.2656
1270.405;0.7916235;0.32047734;1624.4958;-6814.407;-5189.911;-1481.6243;0.0;0.0;1838.2656
1270.41;0.7916673;0.32787675;1624.6659;-6809.297;-5184.631;-1441.1582;0.0;0.0;1838.2656
1270.415;0.79171896;0.3348834;1624.8651;-6804.4727;-5179.6074;-1402.9164;0.0;0.0;1838.2656
1270.42;0.79177886;0.34117824;1625.1133;-6800.447;-5175.3335;-1368.6979;0.0;0.0;1838.2656
1270.425;0.7918605;0.34703466;1625.4805;-6796.3687;-5170.888;-1337.1353;0.0;0.0;1838.2656
1270.43;0.79198563;0.35175392;1626.085;-6793.3115;-5167.2266;-1312.3185;0.0;0.0;1838.2656
1270.435;0.7921895;0.35533443;1627.0553;-6790.745;-5163.69;-1294.5133;0.0;0.0;1838.2656
1270.44;0.79249334;0.35704723;1628.449;-6789.6304;-5161.1816;-1287.855;0.0;0.0;1838.2656
1270.445;0.7928952;0.35657188;1630.1951;-6789.9473;-5159.752;-1293.9685;0.0;0.0;1838.2656
1270.45;0.7933527;0.35345265;1632.066;-6792.21;-5160.144;-1314.9126;0.0;0.0;1838.2656
1270.455;0.793791;0.34778088;1633.7341;-6796.4614;-5162.7275;-1349.5273;0.0;0.0;1838.2656
1270.46;0.79412687;0.3399114;1634.8945;-6802.427;-5167.532;-1395.2467;0.0;0.0;1838.2656
1270.465;0.7943043;0.33146462;1635.39;-6808.2744;-5172.8843;-1442.8201;0.0;0.0;1838.2656
1270.47;0.79431534;0.32262477;1635.27;-6814.1973;-5178.9272;-1491.33;0.0;0.0;1838.2656
1270.475;0.7942001;0.3145675;1634.7253;-6819.174;-5184.448;-1534.6748;0.0;0.0;1838.2656
1270.48;0.794013;0.30741087;1633.9294;-6823.5566;-5189.627;-1572.5504;0.0;0.0;1838.2656
1270.485;0.7937824;0.3013478;1632.9756;-6827.1035;-5194.128;-1604.0793;0.0;0.0;1838.2656
1270.49;0.7935214;0.29694974;1631.8745;-6829.3164;-5197.442;-1626.1316;0.0;0.0;1838.2656
1270.495;0.79322535;0.29425272;1630.6492;-6830.0938;-5199.4443;-1638.5543;0.0;0.0;1838.2656
1270.5;0.79291534;0.29305458;1629.4011;-6829.937;-5200.536;-1642.6659;0.0;0.0;1838.2656
1270.505;0.792623;0.2935495;1628.2998;-6828.5977;-5200.298;-1637.7338;0.0;0.0;1838.2656
1270.51;0.7923991;0.29517967;1627.5404;-6826.788;-5199.2476;-1627.2249;0.0;0.0;1838.2656
1270.515;0.7922822;0.2977596;1627.2338;-6824.1914;-5196.9575;-1612.3838;0.0;0.0;1838.2656
1270.52;0.7922788;0.30040213;1627.3491;-6822.1006;-5194.7515;-1598.0414;0.0;0.0;1838.2656
1270.525;0.79235756;0.30292392;1627.7068;-6820.3438;-5192.6367;-1584.8497;0.0;0.0;1838.2656
1270.53;0.792457;0.30526412;1628.0321;-6818.83;-5190.798;-1572.5946;0.0;0.0;1838.2656
1270.535;0.79250574;0.3078222;1628.0508;-6817.193;-5189.142;-1558.5247;0.0;0.0;1838.2656
1270.54;0.7924488;0.3108084;1627.6006;-6815.33;-5187.7295;-1541.156;0.0;0.0;1838.2656
1270.545;0.79227227;0.3148689;1626.7241;-6812.673;-5185.9487;-1517.0101;0.0;0.0;1838.2656
1270.55;0.79202193;0.32026777;1625.669;-6808.9263;-5183.2573;-1485.1261;0.0;0.0;1838.2656
1270.555;0.79177934;0.3268987;1624.8076;-6804.291;-5179.4834;-1446.8353;0.0;0.0;1838.2656
1270.56;0.7916408;0.33405492;1624.4795;-6799.3877;-5174.908;-1406.714;0.0;0.0;1838.2656
1270.565;0.79166555;0.34093496;1624.8596;-6794.763;-5169.9033;-1369.5322;0.0;0.0;1838.2656
1270.57;0.7918657;0.34663352;1625.9133;-6791.2393;-5165.326;-1340.2133;0.0;0.0;1838.2656
1270.575;0.7922037;0.35038152;1627.4336;-6789.2686;-5161.835;-1322.5844;0.0;0.0;1838.2656
1270.58;0.79261106;0.35200995;1629.1285;-6789.0166;-5159.888;-1316.9937;0.0;0.0;1838.2656
1270.585;0.7930166;0.3513462;1630.7341;-6790.3438;-5159.6094;-1323.8654;0.0;0.0;1838.2656
1270.59;0.7933645;0.34892777;1632.0208;-6792.8486;-5160.828;-1339.7758;0.0;0.0;1838.2656
1270.595;0.79360354;0.3450549;1632.8002;-6796.49;-5163.69;-1362.6927;0.0;0.0;1838.2656
1270.6;0.7936969;0.34092277;1632.9526;-6800.0923;-5167.1396;-1385.7855;0.0;0.0;1838.2656
1270.605;0.79362893;0.33734858;1632.4323;-6803.0103;-5170.578;-1404.4557;0.0;0.0;1838.2656
1270.61;0.7933994;0.33502027;1631.2998;-6804.9395;-5173.6396;-1415.0308;0.0;0.0;1838.2656
1270.615;0.7930453;0.33494753;1629.7303;-6804.954;-5175.2236;-1412.2932;0.0;0.0;1838.2656
1270.62;0.792617;0.3372567;1627.9347;-6803.278;-5175.3433;-1395.9672;0.0;0.0;1838.2656
1270.625;0.79216623;0.34196585;1626.0641;-6799.936;-5173.872;-1366.2559;0.0;0.0;1838.2656
1270.63;0.79171187;0.34936506;1624.2109;-6794.455;-5170.244;-1321.7445;0.0;0.0;1838.2656
1270.635;0.79128146;0.3590458;1622.4897;-6787.332;-5164.8423;-1264.9148;0.0;0.0;1838.2656
1270.64;0.79090565;0.37055618;1621.0613;-6779.0273;-5157.966;-1198.5804;0.0;0.0;1838.2656
1270.645;0.7906359;0.3835932;1620.1577;-6769.3564;-5149.1987;-1124.8768;0.0;0.0;1838.2656
1270.65;0.79053175;0.39655268;1620.0278;-6760.1724;-5140.1445;-1053.1481;0.0;0.0;1838.2656
1270.655;0.7906476;0.40861082;1620.8347;-6751.923;-5131.088;-988.26385;0.0;0.0;1838.2656
1270.66;0.7909973;0.41860023;1622.5767;-6745.218;-5122.641;-936.658;0.0;0.0;1838.2656
1270.665;0.79155606;0.4252688;1625.1324;-6740.934;-5115.802;-904.9939;0.0;0.0;1838.2656
1270.67;0.79228175;0.427595;1628.299;-6740.1533;-5111.8545;-898.4985;0.0;0.0;1838.2656
1270.675;0.7931079;0.42536455;1631.7303;-6742.558;-5110.8276;-917.6615;0.0;0.0;1838.2656
1270.68;0.793923;0.41878146;1634.9392;-6747.8955;-5112.956;-960.38367;0.0;0.0;1838.2656
1270.685;0.79460335;0.40831658;1637.4476;-6755.858;-5118.41;-1023.1122;0.0;0.0;1838.2656
1270.69;0.79505515;0.39529553;1638.9723;-6765.2896;-5126.3174;-1097.97;0.0;0.0;1838.2656
1270.695;0.7952525;0.38099137;1639.4802;-6775.3726;-5135.8926;-1177.8704;0.0;0.0;1838.2656
1270.7;0.7952189;0.3665775;1639.1157;-6785.2554;-5146.1396;-1256.631;0.0;0.0;1838.2656
1270.705;0.7950078;0.35334823;1638.0988;-6793.919;-5155.8203;-1327.5538;0.0;0.0;1838.2656
1270.71;0.79467636;0.34174278;1636.6582;-6801.255;-5164.5967;-1388.6744;0.0;0.0;1838.2656
1270.715;0.79427904;0.3325178;1635.0266;-6806.549;-5171.5225;-1436.285;0.0;0.0;1838.2656
1270.72;0.7938701;0.3253904;1633.3955;-6810.435;-5177.0396;-1472.3291;0.0;0.0;1838.2656
1270.725;0.7934858;0.32025084;1631.9036;-6812.975;-5181.0713;-1497.6887;0.0;0.0;1838.2656
1270.73;0.7931549;0.316987;1630.6924;-6814.41;-5183.718;-1513.2659;0.0;0.0;1838.2656
1270.735;0.7929137;0.3149999;1629.872;-6814.887;-5185.015;-1522.5834;0.0;0.0;1838.2656
1270.74;0.79276836;0.31391096;1629.3889;-6814.977;-5185.588;-1527.6227;0.0;0.0;1838.2656
1270.745;0.7926799;0.3133572;1629.0574;-6814.883;-5185.825;-1530.0134;0.0;0.0;1838.2656
1270.75;0.79259706;0.3132182;1628.6898;-6814.5693;-5185.8794;-1530.0449;0.0;0.0;1838.2656
1270.755;0.7924883;0.3135974;1628.2228;-6813.9404;-5185.718;-1527.0195;0.0;0.0;1838.2656
1270.76;0.79236364;0.31469414;1627.7566;-6812.5747;-5184.8184;-1520.039;0.0;0.0;1838.2656
1270.765;0.7922674;0.31627685;1627.4718;-6810.676;-5183.204;-1510.7411;0.0;0.0;1838.2656
1270.77;0.792244;0.31788072;1627.5879;-6808.7773;-5181.1895;-1502.1282;0.0;0.0;1838.2656
1270.775;0.79235166;0.3187901;1628.2538;-6807.4062;-5179.1523;-1498.445;0.0;0.0;1838.2656
1270.78;0.7925921;0.31831944;1629.404;-6807.453;-5178.049;-1503.3411;0.0;0.0;1838.2656
1270.785;0.7929193;0.3159864;1630.7739;-6809.022;-5178.248;-1518.947;0.0;0.0;1838.2656
1270.79;0.7932444;0.31185967;1631.9924;-6812.2734;-5180.2812;-1544.1422;0.0;0.0;1838.2656
1270.795;0.7934798;0.30673185;1632.7468;-6816.0674;-5183.3203;-1573.9298;0.0;0.0;1838.2656
1270.8;0.7935717;0.3014693;1632.8789;-6819.6553;-5186.7764;-1603.2158;0.0;0.0;1838.2656
1270.805;0.7935066;0.29666677;1632.4094;-6822.698;-5190.289;-1628.7618;0.0;0.0;1838.2656
1270.81;0.79331654;0.29315355;1631.4912;-6824.5596;-5193.0684;-1646.3002;0.0;0.0;1838.2656
1270.815;0.7930501;0.290652;1630.3713;-6825.833;-5195.462;-1657.856;0.0;0.0;1838.2656
1270.82;0.7927807;0.2897393;1629.3362;-6826.091;-5196.755;-1660.819;0.0;0.0;1838.2656
1270.825;0.79257345;0.28994334;1628.6428;-6825.5747;-5196.9316;-1658.307;0.0;0.0;1838.2656
1270.83;0.7924799;0.291031;1628.4274;-6824.4463;-5196.019;-1651.8779;0.0;0.0;1838.2656
1270.835;0.79250604;0.29178822;1628.676;-6824.061;-5195.385;-1648.1992;0.0;0.0;1838.2656
1270.84;0.7926305;0.29228306;1629.242;-6824.108;-5194.866;-1646.6022;0.0;0.0;1838.2656
1270.845;0.79280025;0.29196814;1629.928;-6825.032;-5195.1045;-1649.711;0.0;0.0;1838.2656
1270.85;0.79297376;0.29126745;1630.6024;-6826.051;-5195.448;-1654.9241;0.0;0.0;1838.2656
1270.855;0.7931311;0.28974798;1631.1987;-6828.1006;-5196.902;-1664.4961;0.0;0.0;1838.2656
1270.86;0.7932615;0.28784063;1631.6816;-6830.4346;-5198.753;-1675.9807;0.0;0.0;1838.2656
1270.865;0.7933601;0.28546107;1632.03;-6833.291;-5201.2607;-1689.8003;0.0;0.0;1838.2656
1270.87;0.7934193;0.28292754;1632.2212;-6836.3027;-5204.0815;-1704.1544;0.0;0.0;1838.2656
1270.875;0.79343736;0.28045076;1632.2269;-6839.3433;-5207.116;-1717.8248;0.0;0.0;1838.2656
1270.88;0.7934039;0.278149;1632.0443;-6842.3774;-5210.333;-1730.1533;0.0;0.0;1838.2656
1270.885;0.7933316;0.2762938;1631.7135;-6844.995;-5213.2817;-1739.7227;0.0;0.0;1838.2656
1270.89;0.7932262;0.275171;1631.2339;-6847.041;-5215.807;-1744.9554;0.0;0.0;1838.2656
1270.895;0.7930796;0.27508134;1630.5564;-6848.1533;-5217.5967;-1744.0951;0.0;0.0;1838.2656
1270.9;0.7928736;0.2760061;1629.575;-6848.6006;-5219.0254;-1737.0323;0.0;0.0;1838.2656
1270.905;0.79257864;0.2785515;1628.2368;-6847.6973;-5219.4604;-1720.3188;0.0;0.0;1838.2656
1270.91;0.79220575;0.28319517;1626.6184;-6844.942;-5218.323;-1691.473;0.0;0.0;1838.2656
1270.915;0.79178995;0.28970796;1624.9497;-6840.7607;-5215.811;-1652.2188;0.0;0.0;1838.2656
1270.92;0.7914135;0.2979905;1623.5679;-6835.2246;-5211.6567;-1603.7787;0.0;0.0;1838.2656
1270.925;0.7911579;0.30756658;1622.7908;-6828.775;-5205.9844;-1549.4143;0.0;0.0;1838.2656
1270.93;0.79109025;0.3173616;1622.8334;-6822.168;-5199.3345;-1495.482;0.0;0.0;1838.2656
1270.935;0.79123473;0.3259334;1623.7178;-6816.8574;-5193.1396;-1449.979;0.0;0.0;1838.2656
1270.94;0.79156417;0.3328949;1625.2192;-6812.712;-5187.4927;-1414.5908;0.0;0.0;1838.2656
1270.945;0.79198635;0.33716372;1626.949;-6810.9326;-5183.9834;-1394.5085;0.0;0.0;1838.2656
1270.95;0.79240155;0.33944917;1628.5055;-6810.4106;-5181.9053;-1385.0177;0.0;0.0;1838.2656
1270.955;0.7927221;0.33995363;1629.606;-6810.825;-5181.219;-1384.4366;0.0;0.0;1838.2656
1270.96;0.79291004;0.3391198;1630.1807;-6812.0703;-5181.8896;-1390.1846;0.0;0.0;1838.2656
1270.965;0.79297936;0.3376745;1630.358;-6813.481;-5183.123;-1398.5099;0.0;0.0;1838.2656
1270.97;0.792983;0.33605066;1630.3235;-6814.6445;-5184.3213;-1407.3959;0.0;0.0;1838.2656
1270.975;0.7929531;0.3341117;1630.176;-6815.9854;-5185.8096;-1417.794;0.0;0.0;1838.2656
1270.98;0.7928989;0.33254907;1629.8851;-6816.589;-5186.7036;-1425.8297;0.0;0.0;1838.2656
1270.985;0.79279524;0.3311921;1629.3947;-6817.12;-5187.7256;-1432.332;0.0;0.0;1838.2656
1270.99;0.7926472;0.33052388;1628.7606;-6816.661;-5187.9004;-1434.7493;0.0;0.0;1838.2656
1270.995;0.792483;0.3302309;1628.1431;-6816.089;-5187.946;-1435.1298;0.0;0.0;1838.2656
1271.0;0.79235554;0.33052602;1627.7483;-6814.798;-5187.05;-1432.7126;0.0;0.0;1838.2656
1271.005;0.7923087;0.33083382;1627.7235;-6813.604;-5185.8804;-1430.9657;0.0;0.0;1838.2656
1271.01;0.7923635;0.330871;1628.0922;-6812.4824;-5184.39;-1431.498;0.0;0.0;1838.2656
1271.015;0.7925024;0.33004117;1628.7441;-6812.001;-5183.257;-1437.3782;0.0;0.0;1838.2656
1271.02;0.79268473;0.32819957;1629.5027;-6812.498;-5182.995;-1449.0515;0.0;0.0;1838.2656
1271.025;0.79286665;0.32532814;1630.2087;-6813.8;-5183.591;-1466.299;0.0;0.0;1838.2656
1271.03;0.79301786;0.32181185;1630.7793;-6815.299;-5184.5195;-1486.8315;0.0;0.0;1838.2656
1271.035;0.79313236;0.3175296;1631.2131;-6817.477;-5186.2637;-1511.3151;0.0;0.0;1838.2656
1271.04;0.7932198;0.31285006;1631.5648;-6819.8794;-5188.3145;-1537.8252;0.0;0.0;1838.2656
1271.045;0.7932978;0.30759576;1631.9209;-6822.8955;-5190.9746;-1567.5135;0.0;0.0;1838.2656
1271.05;0.79338884;0.30192453;1632.3245;-6826.2725;-5193.948;-1599.5964;0.0;0.0;1838.2656
1271.055;0.79348904;0.29588908;1632.761;-6829.7773;-5197.0166;-1633.7538;0.0;0.0;1838.2656
1271.06;0.79359156;0.2895842;1633.1954;-6833.5454;-5200.35;-1669.3928;0.0;0.0;1838.2656
1271.065;0.7936862;0.28270444;1633.5798;-6838.0894;-5204.51;-1708.102;0.0;0.0;1838.2656
1271.07;0.79375696;0.27580348;1633.833;-6842.58;-5208.747;-1746.6659;0.0;0.0;1838.2656
1271.075;0.7937802;0.26908326;1633.8573;-6847.0483;-5213.191;-1783.775;0.0;0.0;1838.2656
1271.08;0.7937345;0.26250002;1633.6046;-6851.588;-5217.9834;-1819.575;0.0;0.0;1838.2656
1271.085;0.79362124;0.25687662;1633.1013;-6855.391;-5222.29;-1849.5802;0.0;0.0;1838.2656
1271.09;0.79345757;0.2519656;1632.4175;-6859.0312;-5226.614;-1875.2958;0.0;0.0;1838.2656
1271.095;0.79326046;0.24821626;1631.626;-6861.915;-5230.289;-1894.3896;0.0;0.0;1838.2656
1271.1;0.7930467;0.2458254;1630.7567;-6863.7812;-5233.0244;-1905.8363;0.0;0.0;1838.2656
1271.105;0.7928141;0.245125;1629.8011;-6863.99;-5234.189;-1907.7877;0.0;0.0;1838.2656
1271.11;0.79256207;0.24549773;1628.7833;-6863.7456;-5234.9624;-1903.6965;0.0;0.0;1838.2656
1271.115;0.7923056;0.24719223;1627.7607;-6862.602;-5234.8413;-1892.3065;0.0;0.0;1838.2656
