time;temperature;pressure;kinetic_energy;potential_energy;total_energy;virial;msd;diffusion;volume
420.005;1.1332707;1.2363068;2328.8975;-6416.1484;-4087.251;2160.186;0.0;0.0;1838.2656
420.01;1.1342977;1.2318908;2333.3677;-6419.6606;-4086.293;2126.8926;0.0;0.0;1838.2656
420.015;1.1354173;1.2215381;2337.7651;-6427.451;-4089.686;2061.0042;0.0;0.0;1838.2656
420.02;1.1363347;1.2058964;2341.001;-6439.082;-4098.081;1968.2716;0.0;0.0;1838.2656
420.025;1.1368428;1.1874127;2342.3916;-6452.163;-4109.7715;1863.5569;0.0;0.0;1838.2656
420.03;1.136855;1.1686629;2341.8013;-6464.4883;-4122.687;1761.336;0.0;0.0;1838.2656
420.035;1.1364307;1.1521544;2339.7222;-6474.039;-4134.317;1674.4536;0.0;0.0;1838.2656
420.04;1.1357796;1.1382424;2337.116;-6481.604;-4144.4883;1602.9435;0.0;0.0;1838.2656
420.045;1.1351619;1.1271148;2334.98;-6486.8877;-4151.9077;1545.8488;0.0;0.0;1838.2656
420.05;1.1347762;1.1176724;2333.877;-6491.335;-4157.458;1495.9827;0.0;0.0;1838.2656
420.055;1.134656;1.108741;2333.6821;-6495.701;-4162.019;1447.1177;0.0;0.0;1838.2656
420.06;1.1346788;1.1001314;2333.7778;-6499.867;-4166.0894;1399.4458;0.0;0.0;1838.2656
420.065;1.1346645;1.0917315;2333.4944;-6503.8926;-4170.3984;1353.689;0.0;0.0;1838.2656
420.07;1.1344879;1.0848955;2332.518;-6506.2354;-4173.7173;1317.9419;0.0;0.0;1838.2656
420.075;1.1341506;1.0795003;2330.9858;-6507.909;-4176.9233;1291.2535;0.0;0.0;1838.2656
420.08;1.133734;1.0764736;2329.3035;-6507.6416;-4178.338;1277.9265;0.0;0.0;1838.2656
420.085;1.1333561;1.0756533;2327.89;-6505.6846;-4177.795;1276.23;0.0;0.0;1838.2656
420.09;1.1330914;1.076378;2326.979;-6502.921;-4175.942;1282.0481;0.0;0.0;1838.2656
420.095;1.1329668;1.0780659;2326.6216;-6499.736;-4173.1143;1292.0713;0.0;0.0;1838.2656
420.1;1.1329696;1.0798848;2326.753;-6496.88;-4170.127;1301.839;0.0;0.0;1838.2656
420.105;1.1330789;1.0813962;2327.3315;-6494.882;-4167.5503;1309.0171;0.0;0.0;1838.2656
420.11;1.133294;1.0823475;2328.3408;-6493.542;-4165.201;1312.2454;0.0;0.0;1838.2656
420.115;1.1335956;1.0824714;2329.5747;-6492.9077;-4163.333;1310.4606;0.0;0.0;1838.2656
420.12;1.1338868;1.0811604;2330.5435;-6494.0493;-4163.506;1301.293;0.0;0.0;1838.2656
420.125;1.1340265;1.0797472;2330.7444;-6495.301;-4164.5566;1293.0975;0.0;0.0;1838.2656
420.13;1.1339333;1.0790408;2329.9775;-6496.1377;-4166.16;1290.7355;0.0;0.0;1838.2656
420.135;1.1336137;1.0803932;2328.375;-6495.045;-4166.67;1301.3989;0.0;0.0;1838.2656
420.14;1.1331352;1.0842277;2326.2322;-6492.119;-4165.8867;1326.8308;0.0;0.0;1838.2656
420.145;1.1325827;1.0911465;2324.0046;-6486.5938;-4162.589;1369.442;0.0;0.0;1838.2656
420.15;1.1321052;1.1005269;2322.38;-6478.952;-4156.5723;1424.4225;0.0;0.0;1838.2656
420.155;1.1318865;1.1103382;2322.0618;-6471.7114;-4149.6494;1479.166;0.0;0.0;1838.2656
420.16;1.1320586;1.1190773;2323.3599;-6465.871;-4142.511;1524.7642;0.0;0.0;1838.2656
420.165;1.1326051;1.1252612;2325.9824;-6462.118;-4136.1357;1553.622;0.0;0.0;1838.2656
420.17;1.1333748;1.1274346;2329.2405;-6461.8105;-4132.5703;1559.0918;0.0;0.0;1838.2656
420.175;1.1341705;1.1257144;2332.3003;-6464.546;-4132.2456;1543.486;0.0;0.0;1838.2656
420.18;1.1347967;1.1206625;2334.5078;-6469.805;-4135.2974;1511.2104;0.0;0.0;1838.2656
420.185;1.1351612;1.1136578;2335.7466;-6476.4897;-4140.743;1470.1036;0.0;0.0;1838.2656
420.19;1.1353246;1.1060641;2336.2622;-6483.297;-4147.0347;1427.1946;0.0;0.0;1838.2656
420.195;1.1353405;1.0981865;2336.1274;-6490.325;-4154.1978;1384.0208;0.0;0.0;1838.2656
420.2;1.1351758;1.091464;2335.142;-6496.0146;-4160.8726;1348.9181;0.0;0.0;1838.2656
420.205;1.1347779;1.0867742;2333.2312;-6499.922;-4166.6904;1326.8767;0.0;0.0;1838.2656
420.21;1.1341943;1.0851727;2330.7964;-6501.0605;-4170.264;1322.914;0.0;0.0;1838.2656
420.215;1.133595;1.0863794;2328.5977;-6499.991;-4171.3936;1333.9663;0.0;0.0;1838.2656
420.22;1.1331735;1.0893377;2327.2998;-6497.8022;-4170.5024;1352.8768;0.0;0.0;1838.2656
420.225;1.1330321;1.0927467;2327.1155;-6495.7754;-4168.66;1372.0452;0.0;0.0;1838.2656
420.23;1.13314;1.0956665;2327.7588;-6494.1353;-4166.3765;1386.8606;0.0;0.0;1838.2656
420.235;1.1333715;1.0976734;2328.7212;-6493.216;-4164.4946;1396.0034;0.0;0.0;1838.2656
420.24;1.1336086;1.0982978;2329.6082;-6493.3496;-4163.741;1397.6732;0.0;0.0;1838.2656
420.245;1.1337849;1.0978532;2330.2083;-6494.204;-4163.996;1394.021;0.0;0.0;1838.2656
420.25;1.1338705;1.0968449;2330.4326;-6495.267;-4164.8345;1388.012;0.0;0.0;1838.2656
420.255;1.1338594;1.0958679;2330.2788;-6496.0913;-4165.8125;1382.931;0.0;0.0;1838.2656
420.26;1.1337631;1.0951931;2329.798;-6496.501;-4166.703;1380.1714;0.0;0.0;1838.2656
420.265;1.1335974;1.0952561;2329.0403;-6496.3047;-4167.2646;1382.034;0.0;0.0;1838.2656
420.27;1.133374;1.0963875;2328.0693;-6494.9736;-4166.9043;1390.2157;0.0;0.0;1838.2656
420.275;1.1331183;1.0990909;2327.0596;-6491.9795;-4164.92;1407.144;0.0;0.0;1838.2656
420.28;1.1329017;1.1025441;2326.3887;-6488.682;-4162.2935;1427.5294;0.0;0.0;1838.2656
420.285;1.1328379;1.1057711;2326.5078;-6486.0645;-4159.5566;1445.0875;0.0;0.0;1838.2656
420.29;1.1330179;1.1082097;2327.6277;-6484.1084;-4156.4805;1456.2961;0.0;0.0;1838.2656
420.295;1.1334206;1.1086942;2329.425;-6484.0254;-4154.6006;1455.3734;0.0;0.0;1838.2656
420.3;1.1338835;1.1070831;2331.1172;-6485.658;-4154.541;1443.1039;0.0;0.0;1838.2656
420.305;1.1341884;1.1039057;2331.9102;-6488.435;-4156.525;1423.9955;0.0;0.0;1838.2656
420.31;1.13419;1.1011708;2331.3762;-6490.5444;-4159.168;1409.9808;0.0;0.0;1838.2656
420.315;1.1338564;1.0999609;2329.5483;-6491.266;-4161.718;1406.9642;0.0;0.0;1838.2656
420.32;1.133259;1.1023016;2326.866;-6488.548;-4161.6816;1425.2373;0.0;0.0;1838.2656
420.325;1.1325586;1.1079322;2324.0388;-6483.467;-4159.4277;1461.9431;0.0;0.0;1838.2656
420.33;1.1319441;1.1165645;2321.843;-6475.945;-4154.1016;1513.9402;0.0;0.0;1838.2656
420.335;1.1315892;1.1268784;2320.8694;-6467.526;-4146.6562;1572.7665;0.0;0.0;1838.2656
420.34;1.1315827;1.1371473;2321.3035;-6459.334;-4138.0303;1628.5294;0.0;0.0;1838.2656
420.345;1.1319047;1.1456009;2323.0242;-6452.926;-4129.9014;1671.7083;0.0;0.0;1838.2656
420.35;1.132497;1.1513495;2325.6865;-6448.68;-4122.9937;1698.0856;0.0;0.0;1838.2656
420.355;1.1332353;1.1530468;2328.7295;-6447.95;-4119.2207;1701.3605;0.0;0.0;1838.2656
420.36;1.1339649;1.1509415;2331.5073;-6450.379;-4118.8716;1684.1936;0.0;0.0;1838.2656
420.365;1.1345366;1.1460048;2333.5083;-6454.713;-4121.2046;1652.9673;0.0;0.0;1838.2656
420.37;1.134865;1.1395893;2334.4268;-6459.881;-4125.454;1615.7501;0.0;0.0;1838.2656
420.375;1.1349018;1.1332798;2334.1558;-6464.2666;-4130.111;1581.4962;0.0;0.0;1838.2656
420.38;1.134664;1.1279256;2332.9023;-6467.8813;-4134.979;1554.476;0.0;0.0;1838.2656
420.385;1.1342572;1.1245767;2331.169;-6469.893;-4138.724;1539.4739;0.0;0.0;1838.2656
420.39;1.1338286;1.123654;2329.5928;-6469.754;-4140.161;1537.5383;0.0;0.0;1838.2656
420.395;1.1335328;1.1240542;2328.6912;-6469.036;-4140.3447;1541.5483;0.0;0.0;1838.2656
420.4;1.133451;1.1250017;2328.7056;-6468.178;-4139.4727;1546.7443;0.0;0.0;1838.2656
420.405;1.1335955;1.1251688;2329.5286;-6468.467;-4138.9385;1546.0205;0.0;0.0;1838.2656
420.41;1.1338729;1.124466;2330.5388;-6469.6606;-4139.122;1540.1237;0.0;0.0;1838.2656
420.415;1.1340557;1.1232092;2330.816;-6471.2744;-4140.4585;1532.639;0.0;0.0;1838.2656
420.42;1.133939;1.1230395;2329.7441;-6471.787;-4142.043;1533.8467;0.0;0.0;1838.2656
420.425;1.1334794;1.125269;2327.562;-6470.1016;-4142.5396;1550.5063;0.0;0.0;1838.2656
420.43;1.1328787;1.1305864;2325.3257;-6466.1094;-4140.7837;1584.3031;0.0;0.0;1838.2656
420.435;1.1324521;1.1377425;2324.1306;-6461.131;-4137.0;1626.1575;0.0;0.0;1838.2656
420.44;1.1323757;1.1454766;2324.3228;-6456.145;-4131.8223;1668.4249;0.0;0.0;1838.2656
420.445;1.132594;1.1523932;2325.4072;-6452.0674;-4126.66;1704.3999;0.0;0.0;1838.2656
420.45;1.132899;1.1579216;2326.5068;-6449.241;-4122.7344;1732.6884;0.0;0.0;1838.2656
420.455;1.1330878;1.1629428;2326.9993;-6446.71;-4119.711;1759.3949;0.0;0.0;1838.2656
420.46;1.1330982;1.1675719;2326.8877;-6444.353;-4117.4653;1785.1466;0.0;0.0;1838.2656
420.465;1.1330167;1.1720194;2326.6406;-6442.475;-4115.8345;1810.1675;0.0;0.0;1838.2656
420.47;1.1329862;1.1767659;2326.7717;-6439.878;-4113.1064;1836.0814;0.0;0.0;1838.2656
420.475;1.1331031;1.1807013;2327.5815;-6437.8438;-4110.262;1856.1642;0.0;0.0;1838.2656
420.48;1.133399;1.182723;2329.0435;-6437.5894;-4108.546;1864.3907;0.0;0.0;1838.2656
420.485;1.1338133;1.1825659;2330.837;-6439.0073;-4108.1704;1859.9369;0.0;0.0;1838.2656
420.49;1.1342404;1.1800791;2332.433;-6442.22;-4109.787;1843.0306;0.0;0.0;1838.2656
420.495;1.1345315;1.1761687;2333.3064;-6446.1797;-4112.873;1819.7188;0.0;0.0;1838.2656
420.5;1.1346033;1.1716721;2333.3245;-6450.534;-4117.21;1794.8848;0.0;0.0;1838.2656
420.505;1.1345007;1.1676533;2332.8418;-6454.211;-4121.369;1773.6876;0.0;0.0;1838.2656
420.51;1.1343619;1.1643652;2332.4001;-6457.288;-4124.8877;1756.4373;0.0;0.0;1838.2656
420.515;1.1342964;1.1612538;2332.2444;-6460.4077;-4128.163;1739.5898;0.0;0.0;1838.2656
420.52;1.1342835;1.1586816;2332.1262;-6463.0396;-4130.913;1725.6417;0.0;0.0;1838.2656
420.525;1.1342158;1.1567028;2331.6367;-6465.0244;-4133.3877;1715.7073;0.0;0.0;1838.2656
420.53;1.1340111;1.1557621;2330.542;-6466.3506;-4135.8086;1712.7091;0.0;0.0;1838.2656
420.535;1.1336502;1.1569906;2328.7866;-6465.7026;-4136.916;1722.9954;0.0;0.0;1838.2656
420.54;1.1331267;1.1608628;2326.315;-6462.789;-4136.474;1749.2926;0.0;0.0;1838.2656
420.545;1.1324208;1.1681579;2323.1;-6457.0195;-4133.9194;1795.9532;0.0;0.0;1838.2656
420.55;1.1315681;1.179767;2319.583;-6447.355;-4127.772;1867.0096;0.0;0.0;1838.2656
420.555;1.1307892;1.1945703;2316.9465;-6435.1875;-4118.241;1953.9194;0.0;0.0;1838.2656
420.56;1.1304563;1.2101057;2316.7378;-6422.8;-4106.062;2040.0111;0.0;0.0;1838.2656
420.565;1.1309096;1.2230074;2319.893;-6412.908;-4093.0151;2104.8516;0.0;0.0;1838.2656
420.57;1.1321756;1.2290109;2325.8848;-6409.3643;-4083.4795;2125.976;0.0;0.0;1838.2656
420.575;1.1338851;1.2262005;2332.8938;-6413.0557;-4080.1619;2096.4587;0.0;0.0;1838.2656
420.58;1.1355127;1.2152843;2339.0105;-6422.9775;-4083.967;2024.0253;0.0;0.0;1838.2656
420.585;1.1367068;1.1981995;2343.168;-6437.183;-4094.0151;1921.491;0.0;0.0;1838.2656
420.59;1.1373484;1.1779433;2345.0713;-6453.4277;-4108.3564;1805.976;0.0;0.0;1838.2656
420.595;1.1374469;1.1573017;2344.8457;-6469.226;-4124.3804;1692.5919;0.0;0.0;1838.2656
420.6;1.1370767;1.1385713;2342.9019;-6483.393;-4140.491;1593.1854;0.0;0.0;1838.2656
420.605;1.1363784;1.1238985;2339.7559;-6494.0137;-4154.258;1518.5603;0.0;0.0;1838.2656
420.61;1.1354597;1.1141038;2335.7979;-6500.741;-4164.9434;1472.4602;0.0;0.0;1838.2656
420.615;1.134401;1.1102855;2331.34;-6502.8145;-4171.4746;1460.3187;0.0;0.0;1838.2656
420.62;1.133283;1.1126187;2326.7986;-6499.823;-4173.0244;1482.2688;0.0;0.0;1838.2656
420.625;1.1322337;1.1200961;2322.7236;-6493.325;-4170.6016;1531.655;0.0;0.0;1838.2656
420.63;1.1313957;1.13182;2319.6794;-6483.8047;-4164.125;1602.3986;0.0;0.0;1838.2656
420.635;1.1308914;1.1459851;2318.1426;-6472.873;-4154.7305;1683.5898;0.0;0.0;1838.2656
420.64;1.1308197;1.1604216;2318.4902;-6462.042;-4143.552;1762.5093;0.0;0.0;1838.2656
420.645;1.1312413;1.1724195;2320.8574;-6453.9326;-4133.075;1823.9408;0.0;0.0;1838.2656
420.65;1.1321149;1.1802384;2324.7166;-6449.003;-4124.286;1859.3417;0.0;0.0;1838.2656
420.655;1.1331576;1.1826658;2328.6274;-6448.576;-4119.9487;1864.9071;0.0;0.0;1838.2656
420.66;1.1339537;1.1809638;2331.2573;-6450.7476;-4119.49;1850.2609;0.0;0.0;1838.2656
420.665;1.1343496;1.1767846;2332.514;-6454.2783;-4121.7646;1824.7004;0.0;0.0;1838.2656
420.67;1.1345092;1.1713064;2333.121;-6458.3467;-4125.2256;1793.2748;0.0;0.0;1838.2656
420.675;1.1346117;1.1649736;2333.582;-6462.6875;-4129.1055;1757.4291;0.0;0.0;1838.2656
420.68;1.1347024;1.1577866;2333.9883;-6467.585;-4133.5967;1716.9814;0.0;0.0;1838.2656
420.685;1.1347729;1.1499909;2334.3052;-6472.919;-4138.614;1673.356;0.0;0.0;1838.2656
420.69;1.1348135;1.1424053;2334.467;-6477.5703;-4143.1035;1631.1987;0.0;0.0;1838.2656
420.695;1.1347951;1.1348866;2334.269;-6482.296;-4148.027;1590.1311;0.0;0.0;1838.2656
420.7;1.1346475;1.1280868;2333.4604;-6486.663;-4153.2026;1554.2488;0.0;0.0;1838.2656
420.705;1.1343395;1.1231637;2332.0742;-6489.5986;-4157.5244;1529.871;0.0;0.0;1838.2656
420.71;1.1339415;1.1202328;2330.5103;-6491.4663;-4160.956;1516.836;0.0;0.0;1838.2656
420.715;1.1335795;1.1195979;2329.189;-6491.917;-4162.728;1515.9772;0.0;0.0;1838.2656
420.72;1.1333079;1.1210963;2328.13;-6490.841;-4162.711;1526.3583;0.0;0.0;1838.2656
420.725;1.1330597;1.1245289;2326.9958;-6488.532;-4161.536;1547.5568;0.0;0.0;1838.2656
420.73;1.1327404;1.1302164;2325.4888;-6484.754;-4159.265;1581.9362;0.0;0.0;1838.2656
420.735;1.1323161;1.1384577;2323.5823;-6479.084;-4155.502;1631.1981;0.0;0.0;1838.2656
420.74;1.1318266;1.1492637;2321.5574;-6471.6914;-4150.134;1694.8414;0.0;0.0;1838.2656
420.745;1.131379;1.1626348;2319.9087;-6462.366;-4142.4575;1771.8776;0.0;0.0;1838.2656
420.75;1.1311059;1.1772345;2319.083;-6452.4375;-4133.3545;1854.0436;0.0;0.0;1838.2656
420.755;1.1310635;1.1920371;2319.1292;-6442.6484;-4123.5195;1935.5844;0.0;0.0;1838.2656
420.76;1.1311903;1.2059737;2319.6982;-6433.75;-4114.052;2011.3035;0.0;0.0;1838.2656
420.765;1.1313807;1.219167;2320.5654;-6425.2637;-4104.698;2082.3276;0.0;0.0;1838.2656
420.77;1.1316537;1.2304031;2321.9126;-6418.3633;-4096.4507;2141.5977;0.0;0.0;1838.2656
420.775;1.1320784;1.2394181;2323.9697;-6413.2695;-4089.2998;2187.2002;0.0;0.0;1838.2656
420.78;1.1326779;1.244886;2326.62;-6411.2705;-4084.6504;2212.0535;0.0;0.0;1838.2656
420.785;1.1333522;1.2470593;2329.3533;-6411.6934;-4082.34;2218.5723;0.0;0.0;1838.2656
420.79;1.1339551;1.2464055;2331.6248;-6414.011;-4082.3865;2210.4233;0.0;0.0;1838.2656
420.795;1.1343826;1.2432238;2333.0762;-6418.4346;-4085.3584;2189.9744;0.0;0.0;1838.2656
420.8;1.1345778;1.2394769;2333.5098;-6422.805;-4089.2954;2168.444;0.0;0.0;1838.2656
420.805;1.1345161;1.2359129;2332.9;-6427.0;-4094.1;2150.0088;0.0;0.0;1838.2656
420.81;1.1342208;1.2343526;2331.353;-6429.067;-4097.714;2144.4978;0.0;0.0;1838.2656
420.815;1.133729;1.2351419;2329.062;-6429.4404;-4100.3784;2153.4324;0.0;0.0;1838.2656
420.82;1.1331009;1.2392843;2326.3113;-6426.828;-4100.5166;2181.7788;0.0;0.0;1838.2656
420.825;1.1324202;1.2470036;2323.5288;-6421.169;-4097.64;2229.9136;0.0;0.0;1838.2656
420.83;1.1318227;1.2570606;2321.4043;-6413.992;-4092.588;2289.6257;0.0;0.0;1838.2656
420.835;1.131507;1.2685715;2320.7397;-6405.5586;-4084.8188;2354.4346;0.0;0.0;1838.2656
420.84;1.1316379;1.278966;2321.9414;-6398.3105;-4076.3691;2409.3547;0.0;0.0;1838.2656
420.845;1.1321923;1.2861549;2324.5283;-6393.8555;-4069.3271;2443.8264;0.0;0.0;1838.2656
420.85;1.1329153;1.2894356;2327.2827;-6392.4326;-4065.15;2456.4104;0.0;0.0;1838.2656
420.855;1.1334752;1.2895215;2329.0483;-6392.834;-4063.7856;2453.352;0.0;0.0;1838.2656
420.86;1.1336896;1.2882297;2329.5022;-6393.359;-4063.8567;2445.3206;0.0;0.0;1838.2656
420.865;1.1336403;1.2864374;2329.2485;-6393.8096;-4064.561;2435.9436;0.0;0.0;1838.2656
420.87;1.1335636;1.2843347;2329.2563;-6393.8926;-4064.6362;2424.3318;0.0;0.0;1838.2656
420.875;1.1336774;1.280996;2330.2207;-6395.0684;-4064.8477;2403.9912;0.0;0.0;1838.2656
420.88;1.1340629;1.2748883;2332.1335;-6398.36;-4066.2263;2366.483;0.0;0.0;1838.2656
420.885;1.1345943;1.2660997;2334.27;-6403.788;-4069.518;2313.7424;0.0;0.0;1838.2656
420.89;1.135039;1.254928;2335.752;-6410.848;-4075.0962;2249.1687;0.0;0.0;1838.2656
420.895;1.1352271;1.2431344;2336.1235;-6417.676;-4081.5522;2183.3865;0.0;0.0;1838.2656
420.9;1.1351472;1.2311735;2335.5972;-6424.535;-4088.938;2118.4773;0.0;0.0;1838.2656
420.905;1.1349239;1.2206135;2334.5964;-6429.9126;-4095.3162;2062.2424;0.0;0.0;1838.2656
420.91;1.1346235;1.2114861;2333.2793;-6434.3223;-4101.043;2014.541;0.0;0.0;1838.2656
420.915;1.1342489;1.2041878;2331.658;-6437.2944;-4105.6367;1977.5345;0.0;0.0;1838.2656
420.92;1.133816;1.1991063;2329.92;-6438.457;-4108.537;1952.988;0.0;0.0;1838.2656
420.925;1.133412;1.1961728;2328.4443;-6437.995;-4109.551;1939.7616;0.0;0.0;1838.2656
420.93;1.1331338;1.1945552;2327.6104;-6436.5796;-4108.969;1932.508;0.0;0.0;1838.2656
420.935;1.1330537;1.1934031;2327.5896;-6435.0283;-4107.4385;1926.1969;0.0;0.0;1838.2656
420.94;1.1331625;1.1916798;2328.1982;-6434.2217;-4106.0234;1915.4758;0.0;0.0;1838.2656
420.945;1.1333649;1.1889095;2329.016;-6434.412;-4105.396;1898.5624;0.0;0.0;1838.2656
420.95;1.1335506;1.1851972;2329.624;-6435.3545;-4105.7305;1876.8737;0.0;0.0;1838.2656
420.955;1.1336381;1.1810664;2329.826;-6436.3525;-4106.5264;1853.6891;0.0;0.0;1838.2656
420.96;1.1336275;1.1771072;2329.6587;-6437.1045;-4107.446;1832.1901;0.0;0.0;1838.2656
420.965;1.1335518;1.1734204;2329.3386;-6437.548;-4108.209;1812.4978;0.0;0.0;1838.2656
420.97;1.1334878;1.1700398;2329.2104;-6437.475;-4108.2646;1794.111;0.0;0.0;1838.2656
420.975;1.1335222;1.1661441;2329.548;-6438.481;-4108.9326;1771.9518;0.0;0.0;1838.2656
420.98;1.1336861;1.1617357;2330.3855;-6439.637;-4109.252;1745.965;0.0;0.0;1838.2656
420.985;1.1339496;1.1560593;2331.5317;-6441.9995;-4110.468;1712.3688;0.0;0.0;1838.2656
420.99;1.1342496;1.148873;2332.7827;-6445.76;-4112.977;1670.2357;0.0;0.0;1838.2656
420.995;1.134553;1.1400348;2333.9917;-6451.0303;-4117.0386;1619.0769;0.0;0.0;1838.2656
421.0;1.1348116;1.1300092;2334.8774;-6457.4766;-4122.599;1562.016;0.0;0.0;1838.2656
421.005;1.1349229;1.1197485;2334.9294;-6463.9023;-4128.9727;1505.3263;0.0;0.0;1838.2656
421.01;1.13474;1.1110661;2333.621;-6468.661;-4135.04;1460.0616;0.0;0.0;1838.2656
421.015;1.1341865;1.1053858;2330.944;-6470.783;-4139.839;1434.0898;0.0;0.0;1838.2656
421.02;1.1333764;1.1039218;2327.5667;-6469.613;-4142.046;1432.7711;0.0;0.0;1838.2656
421.025;1.1325452;1.1067201;2324.5288;-6465.204;-4140.6753;1454.2789;0.0;0.0;1838.2656
421.03;1.1319572;1.1121464;2322.7441;-6459.2754;-4136.5312;1487.7731;0.0;0.0;1838.2656
421.035;1.1317649;1.1187896;2322.6338;-6453.0327;-4130.399;1524.6293;0.0;0.0;1838.2656
421.04;1.1319865;1.1242882;2324.0244;-6448.4004;-4124.376;1552.1724;0.0;0.0;1838.2656
421.045;1.1324872;1.1274979;2326.2222;-6445.912;-4119.69;1565.4778;0.0;0.0;1838.2656
421.05;1.1330501;1.1282791;2328.355;-6445.2812;-4116.9263;1565.5201;0.0;0.0;1838.2656
421.055;1.1334811;1.126749;2329.7917;-6446.551;-4116.759;1554.2084;0.0;0.0;1838.2656
421.06;1.1336968;1.1241611;2330.372;-6448.5903;-4118.2183;1538.7762;0.0;0.0;1838.2656
421.065;1.1337286;1.1214848;2330.3328;-6450.2153;-4119.883;1524.0953;0.0;0.0;1838.2656
421.07;1.133673;1.1187394;2330.1052;-6451.9346;-4121.829;1509.4099;0.0;0.0;1838.2656
421.075;1.1336454;1.1163548;2330.151;-6453.253;-4123.102;1496.1683;0.0;0.0;1838.2656
421.08;1.1337487;1.1133647;2330.8164;-6455.1455;-4124.329;1478.3473;0.0;0.0;1838.2656
421.085;1.134026;1.1089597;2332.137;-6458.5527;-4126.416;1451.4135;0.0;0.0;1838.2656
421.09;1.1344185;1.1029743;2333.5828;-6463.483;-4129.9004;1415.5135;0.0;0.0;1838.2656
421.095;1.1346983;1.0961515;2334.17;-6468.836;-4134.666;1376.7131;0.0;0.0;1838.2656
421.1;1.1346307;1.09041;2333.233;-6472.958;-4139.725;1346.9238;0.0;0.0;1838.2656
421.105;1.134186;1.0869344;2331.1187;-6475.2646;-4144.146;1331.9851;0.0;0.0;1838.2656
421.11;1.1336061;1.0863032;2328.9988;-6475.466;-4146.467;1332.7439;0.0;0.0;1838.2656
421.115;1.1332052;1.0879034;2327.8271;-6474.465;-4146.6377;1343.9116;0.0;0.0;1838.2656
421.12;1.1330763;1.0902054;2327.6099;-6473.5566;-4145.947;1357.0419;0.0;0.0;1838.2656
421.125;1.1331027;1.0927808;2327.8325;-6472.6143;-4144.7817;1370.7991;0.0;0.0;1838.2656
421.13;1.1331676;1.0950471;2328.2043;-6472.1523;-4143.948;1382.5538;0.0;0.0;1838.2656
421.135;1.1332636;1.0967165;2328.6943;-6472.555;-4143.861;1390.78;0.0;0.0;1838.2656
421.14;1.1333808;1.0977954;2329.1826;-6473.48;-4144.2974;1395.7529;0.0;0.0;1838.2656
421.145;1.1334659;1.0987705;2329.4683;-6474.01;-4144.5415;1400.5598;0.0;0.0;1838.2656
421.15;1.1334834;1.0992708;2329.4663;-6474.995;-4145.529;1403.3229;0.0;0.0;1838.2656
421.155;1.1334383;1.1002591;2329.2852;-6475.072;-4145.7866;1409.1349;0.0;0.0;1838.2656
421.16;1.1333832;1.1008285;2329.126;-6475.5566;-4146.4307;1412.5935;0.0;0.0;1838.2656
