time;temperature;pressure;kinetic_energy;potential_energy;total_energy;virial;msd;diffusion;volume
1430.005;0.72866106;0.1468795;1497.2756;-6898.1216;-5400.8457;-2184.5408;0.0;0.0;1838.2656
1430.01;0.7286288;0.14789401;1497.1536;-6896.9697;-5399.8164;-2178.7017;0.0;0.0;1838.2656
1430.015;0.72860855;0.14902598;1497.1055;-6895.5903;-5398.485;-2172.363;0.0;0.0;1838.2656
1430.02;0.7286166;0.15007322;1497.2051;-6894.4805;-5397.2754;-2166.7869;0.0;0.0;1838.2656
1430.025;0.7286708;0.15087342;1497.501;-6893.4062;-5395.9053;-2162.9656;0.0;0.0;1838.2656
1430.03;0.72877246;0.15083137;1497.9958;-6893.5557;-5395.5596;-2164.1873;0.0;0.0;1838.2656
1430.035;0.72891814;0.1503752;1498.624;-6893.763;-5395.139;-2167.9595;0.0;0.0;1838.2656
1430.04;0.7290752;0.1490884;1499.2458;-6894.6636;-5395.418;-2176.2996;0.0;0.0;1838.2656
1430.045;0.7292057;0.14733322;1499.6967;-6895.99;-5396.2935;-2186.8806;0.0;0.0;1838.2656
1430.05;0.7292694;0.14528969;1499.8014;-6897.5312;-5397.73;-2198.3596;0.0;0.0;1838.2656
1430.055;0.7292253;0.14350323;1499.4446;-6899.16;-5399.716;-2207.498;0.0;0.0;1838.2656
1430.06;0.7290657;0.14249474;1498.632;-6899.988;-5401.356;-2211.4343;0.0;0.0;1838.2656
1430.065;0.72880876;0.14336458;1497.5139;-6898.9277;-5401.414;-2204.4014;0.0;0.0;1838.2656
1430.07;0.72851753;0.14555496;1496.3735;-6897.1025;-5400.729;-2190.041;0.0;0.0;1838.2656
1430.075;0.72826654;0.14917493;1495.4851;-6894.233;-5398.748;-2168.3008;0.0;0.0;1838.2656
1430.08;0.72811013;0.15350497;1495.0311;-6890.9463;-5395.915;-2143.5134;0.0;0.0;1838.2656
1430.085;0.728071;0.1580958;1494.9966;-6887.749;-5392.7524;-2118.127;0.0;0.0;1838.2656
1430.09;0.7281099;0.16238767;1495.2024;-6885.1484;-5389.9463;-2094.8699;0.0;0.0;1838.2656
1430.095;0.728178;0.16652049;1495.444;-6882.6084;-5387.1646;-2072.5613;0.0;0.0;1838.2656
1430.1;0.7282287;0.17055854;1495.6078;-6879.8765;-5384.2686;-2050.6199;0.0;0.0;1838.2656
1430.105;0.7282606;0.17445561;1495.7343;-6877.3013;-5381.567;-2029.3812;0.0;0.0;1838.2656
1430.11;0.7282977;0.177779;1495.9253;-6875.5586;-5379.6333;-2011.4355;0.0;0.0;1838.2656
1430.115;0.72836417;0.18094903;1496.2397;-6873.6934;-5377.4536;-1994.5823;0.0;0.0;1838.2656
1430.12;0.72845954;0.1834718;1496.6432;-6872.4414;-5375.7983;-1981.4767;0.0;0.0;1838.2656
1430.125;0.72856456;0.18535681;1497.0527;-6871.5654;-5374.5127;-1971.9003;0.0;0.0;1838.2656
1430.13;0.7286612;0.18698202;1497.447;-6870.8354;-5373.3887;-1963.7262;0.0;0.0;1838.2656
1430.135;0.7287648;0.1880005;1497.9379;-6870.5176;-5372.5796;-1959.0912;0.0;0.0;1838.2656
1430.14;0.7289159;0.18787254;1498.7108;-6871.1357;-5372.425;-1961.3427;0.0;0.0;1838.2656
1430.145;0.7291595;0.18639843;1499.8779;-6873.082;-5373.204;-1971.8064;0.0;0.0;1838.2656
1430.15;0.7294899;0.18353689;1501.3064;-6875.9785;-5374.672;-1990.4441;0.0;0.0;1838.2656
1430.155;0.72983474;0.1788624;1502.6166;-6880.274;-5377.657;-2018.8434;0.0;0.0;1838.2656
1430.16;0.7300789;0.1728733;1503.3807;-6885.7744;-5382.3936;-2053.4004;0.0;0.0;1838.2656
1430.165;0.7301424;0.16686712;1503.3645;-6890.787;-5387.423;-2086.4907;0.0;0.0;1838.2656
1430.17;0.7300085;0.1612124;1502.6057;-6895.6567;-5393.051;-2116.1577;0.0;0.0;1838.2656
1430.175;0.72972614;0.15713894;1501.3495;-6898.975;-5397.6255;-2136.1096;0.0;0.0;1838.2656
1430.18;0.72937113;0.15490058;1499.9058;-6900.7847;-5400.879;-2145.5662;0.0;0.0;1838.2656
1430.185;0.72902006;0.15425824;1498.5862;-6901.4863;-5402.9004;-2146.4695;0.0;0.0;1838.2656
1430.19;0.7287442;0.15504153;1497.6521;-6901.082;-5403.4297;-2140.2817;0.0;0.0;1838.2656
1430.195;0.72859335;0.15655886;1497.2646;-6900.2295;-5402.965;-2131.139;0.0;0.0;1838.2656
1430.2;0.7285861;0.15801221;1497.4218;-6899.725;-5402.303;-2123.4382;0.0;0.0;1838.2656
1430.205;0.72869194;0.15915765;1497.9576;-6899.405;-5401.4473;-2118.193;0.0;0.0;1838.2656
1430.21;0.72885555;0.1593267;1498.6406;-6900.0713;-5401.4307;-2118.6267;0.0;0.0;1838.2656
1430.215;0.72902006;0.15873535;1499.2651;-6901.303;-5402.038;-2123.137;0.0;0.0;1838.2656
1430.22;0.7291472;0.15781902;1499.7089;-6902.5347;-5402.8257;-2129.078;0.0;0.0;1838.2656
1430.225;0.7292196;0.15622655;1499.9244;-6904.552;-5404.6274;-2138.2913;0.0;0.0;1838.2656
1430.23;0.7292335;0.15467294;1499.9004;-6906.536;-5406.6357;-2146.811;0.0;0.0;1838.2656
1430.235;0.72919005;0.15338583;1499.6412;-6908.278;-5408.6367;-2153.3909;0.0;0.0;1838.2656
1430.24;0.729091;0.15283985;1499.1686;-6909.3545;-5410.186;-2155.4565;0.0;0.0;1838.2656
1430.245;0.72894496;0.15311398;1498.4774;-6909.922;-5411.4443;-2152.5623;0.0;0.0;1838.2656
1430.25;0.72874093;0.15468639;1497.5325;-6909.5703;-5412.038;-2142.001;0.0;0.0;1838.2656
1430.255;0.72847515;0.1577773;1496.3572;-6908.0527;-5411.6953;-2122.6045;0.0;0.0;1838.2656
1430.26;0.7281673;0.16277076;1495.0416;-6904.9897;-5409.948;-2092.4355;0.0;0.0;1838.2656
1430.265;0.7278449;0.16954002;1493.7404;-6900.482;-5406.7417;-2052.502;0.0;0.0;1838.2656
1430.27;0.72755504;0.17800365;1492.6213;-6894.876;-5402.255;-2003.5886;0.0;0.0;1838.2656
1430.275;0.7273297;0.18740934;1491.7723;-6888.7744;-5397.002;-1950.0201;0.0;0.0;1838.2656
1430.28;0.7271728;0.19784012;1491.1844;-6881.984;-5390.7993;-1891.3208;0.0;0.0;1838.2656
1430.285;0.727075;0.20863739;1490.822;-6875.075;-5384.253;-1831.0513;0.0;0.0;1838.2656
1430.29;0.727028;0.21988998;1490.649;-6867.578;-5376.929;-1768.6494;0.0;0.0;1838.2656
1430.295;0.7270248;0.23102137;1490.6703;-6860.073;-5369.403;-1707.3046;0.0;0.0;1838.2656
1430.3;0.7270766;0.24154101;1490.9526;-6852.965;-5362.012;-1649.8556;0.0;0.0;1838.2656
1430.305;0.72720677;0.25082484;1491.6111;-6847.012;-5355.4014;-1599.9742;0.0;0.0;1838.2656
1430.31;0.7274482;0.2586089;1492.7922;-6841.869;-5349.077;-1559.4088;0.0;0.0;1838.2656
1430.315;0.7278384;0.26387587;1494.6647;-6838.7246;-5344.06;-1534.1075;0.0;0.0;1838.2656
1430.32;0.72841424;0.26570043;1497.3049;-6838.092;-5340.787;-1529.326;0.0;0.0;1838.2656
1430.325;0.7291591;0.26343587;1500.518;-6840.532;-5340.014;-1548.2405;0.0;0.0;1838.2656
1430.33;0.7299753;0.2567873;1503.7991;-6846.116;-5342.3174;-1591.4684;0.0;0.0;1838.2656
1430.335;0.7307053;0.24608253;1506.4692;-6854.5605;-5348.0913;-1655.8434;0.0;0.0;1838.2656
1430.34;0.73118734;0.23267451;1508.0042;-6864.884;-5356.88;-1732.8557;0.0;0.0;1838.2656
1430.345;0.7313534;0.21845663;1508.2832;-6875.203;-5366.92;-1811.8225;0.0;0.0;1838.2656
1430.35;0.73123527;0.20508483;1507.533;-6884.2266;-5376.6934;-1884.0648;0.0;0.0;1838.2656
1430.355;0.7309228;0.19289392;1506.1233;-6892.421;-5386.298;-1948.4757;0.0;0.0;1838.2656
1430.36;0.7305053;0.18315163;1504.3732;-6898.6367;-5394.2637;-1998.7023;0.0;0.0;1838.2656
1430.365;0.730045;0.17584307;1502.4974;-6903.303;-5400.8057;-2035.2561;0.0;0.0;1838.2656
1430.37;0.7295807;0.17110197;1500.6503;-6906.0386;-5405.388;-2057.7078;0.0;0.0;1838.2656
1430.375;0.7291463;0.1689944;1498.9402;-6907.1113;-5408.171;-2065.9106;0.0;0.0;1838.2656
1430.38;0.7287588;0.16932447;1497.4456;-6906.3647;-5408.919;-2061.101;0.0;0.0;1838.2656
1430.385;0.7284362;0.17143424;1496.2072;-6904.781;-5408.5737;-2046.9893;0.0;0.0;1838.2656
1430.39;0.7281774;0.17546253;1495.2251;-6901.913;-5406.688;-2022.81;0.0;0.0;1838.2656
1430.395;0.72798383;0.1807633;1494.5205;-6898.3057;-5403.785;-1992.1681;0.0;0.0;1838.2656
1430.4;0.7278651;0.1867142;1494.1477;-6894.643;-5400.495;-1958.6045;0.0;0.0;1838.2656
1430.405;0.7278386;0.19288532;1494.1921;-6891.2627;-5397.0703;-1924.6609;0.0;0.0;1838.2656
1430.41;0.72792464;0.19888562;1494.687;-6888.131;-5393.444;-1892.5602;0.0;0.0;1838.2656
1430.415;0.7281123;0.20398748;1495.5513;-6886.051;-5390.4995;-1866.1531;0.0;0.0;1838.2656
1430.42;0.7283649;0.20800522;1496.595;-6884.8174;-5388.2227;-1846.0834;0.0;0.0;1838.2656
1430.425;0.7286222;0.2110241;1497.5573;-6884.3447;-5386.7876;-1831.3594;0.0;0.0;1838.2656
1430.43;0.72882086;0.21302971;1498.2242;-6884.794;-5386.57;-1821.6328;0.0;0.0;1838.2656
1430.435;0.7289285;0.21465869;1498.531;-6885.3545;-5386.823;-1813.263;0.0;0.0;1838.2656
1430.44;0.7289554;0.21595953;1498.5862;-6886.1724;-5387.586;-1806.1995;0.0;0.0;1838.2656
1430.445;0.72895;0.21731141;1498.5887;-6886.8354;-5388.2466;-1798.7493;0.0;0.0;1838.2656
1430.45;0.72895914;0.21858941;1498.7041;-6887.4834;-5388.7793;-1791.932;0.0;0.0;1838.2656
1430.455;0.729011;0.2194296;1498.9823;-6888.586;-5389.6035;-1787.8549;0.0;0.0;1838.2656
1430.46;0.7290948;0.21958995;1499.3657;-6890.285;-5390.9194;-1787.7374;0.0;0.0;1838.2656
1430.465;0.7291906;0.21941824;1499.7557;-6892.082;-5392.326;-1789.4645;0.0;0.0;1838.2656
1430.47;0.7292718;0.21848153;1500.0779;-6894.583;-5394.505;-1795.2745;0.0;0.0;1838.2656
1430.475;0.7293323;0.21714221;1500.332;-6897.369;-5397.037;-1803.169;0.0;0.0;1838.2656
1430.48;0.72938;0.21556945;1500.5388;-6900.237;-5399.698;-1812.256;0.0;0.0;1838.2656
1430.485;0.7294146;0.21386465;1500.6719;-6903.013;-5402.3413;-1821.9236;0.0;0.0;1838.2656
1430.49;0.7294204;0.21216293;1500.6338;-6905.7676;-5405.134;-1831.2322;0.0;0.0;1838.2656
1430.495;0.7293651;0.21076624;1500.3033;-6908.248;-5407.945;-1838.2737;0.0;0.0;1838.2656
1430.5;0.72922677;0.21002002;1499.6177;-6910.091;-5410.473;-1841.0176;0.0;0.0;1838.2656
1430.505;0.72900224;0.21053502;1498.6061;-6910.884;-5412.278;-1836.1543;0.0;0.0;1838.2656
1430.51;0.72871447;0.21256761;1497.3804;-6910.425;-5413.0444;-1822.4935;0.0;0.0;1838.2656
1430.515;0.7283974;0.21616237;1496.1038;-6908.6577;-5412.5537;-1800.116;0.0;0.0;1838.2656
1430.52;0.7280971;0.2212355;1494.9294;-6905.802;-5410.872;-1769.79;0.0;0.0;1838.2656
1430.525;0.72783756;0.22766319;1493.9185;-6901.9785;-5408.06;-1732.3207;0.0;0.0;1838.2656
1430.53;0.7276214;0.23501514;1493.0834;-6897.5005;-5404.417;-1690.106;0.0;0.0;1838.2656
1430.535;0.7274507;0.2431157;1492.4138;-6892.578;-5400.164;-1644.094;0.0;0.0;1838.2656
1430.54;0.7273202;0.25193018;1491.9341;-6886.839;-5394.905;-1594.5244;0.0;0.0;1838.2656
1430.545;0.727251;0.26111814;1491.773;-6880.503;-5388.73;-1543.5323;0.0;0.0;1838.2656
1430.55;0.72728604;0.26965663;1492.0984;-6874.9565;-5382.8584;-1497.0952;0.0;0.0;1838.2656
1430.555;0.72745925;0.27717423;1492.9944;-6870.164;-5377.17;-1457.4292;0.0;0.0;1838.2656
1430.56;0.7277698;0.28274035;1494.4222;-6866.8604;-5372.438;-1429.5889;0.0;0.0;1838.2656
1430.565;0.72819096;0.2859828;1496.2275;-6865.3013;-5369.0737;-1415.3181;0.0;0.0;1838.2656
1430.57;0.7286699;0.28649247;1498.1953;-6865.732;-5367.5366;-1416.4429;0.0;0.0;1838.2656
1430.575;0.7291527;0.28416103;1500.0999;-6868.3877;-5368.288;-1433.1094;0.0;0.0;1838.2656
1430.58;0.72958297;0.2795016;1501.7104;-6872.634;-5370.9233;-1462.0265;0.0;0.0;1838.2656
1430.585;0.7299046;0.27300668;1502.8018;-6878.0405;-5375.239;-1500.0271;0.0;0.0;1838.2656
1430.59;0.7300684;0.2657886;1503.1997;-6883.6626;-5380.463;-1540.6293;0.0;0.0;1838.2656
1430.595;0.73005056;0.25840294;1502.9111;-6889.214;-5386.3027;-1580.7825;0.0;0.0;1838.2656
1430.6;0.72988945;0.25189984;1502.1559;-6893.79;-5391.6343;-1615.1354;0.0;0.0;1838.2656
1430.605;0.7296612;0.24658027;1501.2491;-6897.1543;-5395.9053;-1642.6582;0.0;0.0;1838.2656
1430.61;0.72944105;0.24222;1500.4536;-6899.9897;-5399.536;-1665.1132;0.0;0.0;1838.2656
1430.615;0.7292739;0.23875748;1499.8866;-6902.1533;-5402.2666;-1683.0742;0.0;0.0;1838.2656
1430.62;0.7291646;0.23595057;1499.527;-6903.669;-5404.142;-1697.8345;0.0;0.0;1838.2656
1430.625;0.72909486;0.23328382;1499.3025;-6905.5195;-5406.217;-1712.0922;0.0;0.0;1838.2656
1430.63;0.7290478;0.23116474;1499.1437;-6906.6475;-5407.504;-1723.4608;0.0;0.0;1838.2656
1430.635;0.7290086;0.22911993;1499.0151;-6907.8857;-5408.8706;-1734.4805;0.0;0.0;1838.2656
1430.64;0.7289753;0.2269796;1498.9106;-6909.29;-5410.3794;-1746.0748;0.0;0.0;1838.2656
1430.645;0.72894603;0.2251191;1498.8219;-6910.4756;-5411.654;-1756.1577;0.0;0.0;1838.2656
1430.65;0.72891873;0.2234611;1498.7078;-6911.51;-5412.802;-1765.0729;0.0;0.0;1838.2656
1430.655;0.72887474;0.22198536;1498.5139;-6912.2754;-5413.7617;-1772.8237;0.0;0.0;1838.2656
1430.66;0.7288085;0.22106467;1498.2148;-6912.493;-5414.2783;-1777.303;0.0;0.0;1838.2656
1430.665;0.7287145;0.2202853;1497.7908;-6912.7666;-5414.9756;-1780.7528;0.0;0.0;1838.2656
1430.67;0.7285907;0.22017287;1497.2522;-6912.525;-5415.2725;-1780.2958;0.0;0.0;1838.2656
1430.675;0.72844744;0.22099636;1496.6455;-6911.3545;-5414.709;-1774.5409;0.0;0.0;1838.2656
1430.68;0.72829825;0.22244874;1496.0679;-6909.7993;-5413.7314;-1765.3761;0.0;0.0;1838.2656
1430.685;0.7281772;0.22459786;1495.6332;-6907.7124;-5412.079;-1752.6548;0.0;0.0;1838.2656
1430.69;0.72810173;0.22718945;1495.4036;-6905.2217;-5409.8184;-1737.9034;0.0;0.0;1838.2656
1430.695;0.72807956;0.22957763;1495.3654;-6903.216;-5407.8506;-1724.6567;0.0;0.0;1838.2656
1430.7;0.728092;0.23202993;1495.4504;-6901.0713;-5405.621;-1711.303;0.0;0.0;1838.2656
1430.705;0.7281259;0.2339947;1495.6122;-6899.425;-5403.8125;-1700.7911;0.0;0.0;1838.2656
1430.71;0.72817373;0.23609102;1495.8483;-6897.408;-5401.56;-1689.7025;0.0;0.0;1838.2656
1430.715;0.7282455;0.23733553;1496.1996;-6896.36;-5400.16;-1683.5419;0.0;0.0;1838.2656
1430.72;0.7283503;0.23826613;1496.7048;-6895.2617;-5398.5566;-1679.4204;0.0;0.0;1838.2656
1430.725;0.72849596;0.23852913;1497.3516;-6894.532;-5397.1807;-1679.2634;0.0;0.0;1838.2656
1430.73;0.728665;0.23745458;1498.0662;-6895.124;-5397.0576;-1686.6185;0.0;0.0;1838.2656
1430.735;0.7288377;0.23535435;1498.7468;-6896.669;-5397.922;-1699.5623;0.0;0.0;1838.2656
1430.74;0.72898453;0.2326724;1499.2826;-6898.383;-5399.1;-1715.4242;0.0;0.0;1838.2656
1430.745;0.72908086;0.22966275;1499.5767;-6900.1772;-5400.6006;-1732.6099;0.0;0.0;1838.2656
1430.75;0.7291069;0.22656493;1499.5552;-6901.8916;-5402.3364;-1749.6508;0.0;0.0;1838.2656
1430.755;0.72905004;0.2236438;1499.197;-6903.4717;-5404.2744;-1765.044;0.0;0.0;1838.2656
1430.76;0.7289186;0.22130562;1498.574;-6904.6113;-5406.037;-1776.6924;0.0;0.0;1838.2656
1430.765;0.72874266;0.22013581;1497.8342;-6904.6606;-5406.826;-1781.6642;0.0;0.0;1838.2656
1430.77;0.728568;0.21980524;1497.1814;-6904.1035;-5406.922;-1782.1815;0.0;0.0;1838.2656
1430.775;0.72844493;0.21996284;1496.8038;-6903.4775;-5406.674;-1780.5573;0.0;0.0;1838.2656
1430.78;0.72840905;0.22028151;1496.7764;-6902.7124;-5405.936;-1778.745;0.0;0.0;1838.2656
1430.785;0.72845024;0.22039735;1497.0121;-6902.3447;-5405.3325;-1778.5775;0.0;0.0;1838.2656
1430.79;0.7285299;0.22031796;1497.3279;-6902.022;-5404.6943;-1779.647;0.0;0.0;1838.2656
1430.795;0.7285976;0.22017737;1497.5317;-6901.533;-5404.0015;-1780.8301;0.0;0.0;1838.2656
1430.8;0.72861564;0.21958515;1497.5269;-6901.601;-5404.074;-1784.0862;0.0;0.0;1838.2656
1430.805;0.72858506;0.21907611;1497.3914;-6901.5396;-5404.1484;-1786.6224;0.0;0.0;1838.2656
1430.81;0.728551;0.21835235;1497.3398;-6901.664;-5404.324;-1790.5109;0.0;0.0;1838.2656
1430.815;0.72857445;0.2176383;1497.5962;-6901.6;-5404.004;-1794.9614;0.0;0.0;1838.2656
1430.82;0.72869796;0.21582262;1498.2876;-6902.522;-5404.2344;-1806.3573;0.0;0.0;1838.2656
1430.825;0.7289299;0.21284288;1499.3635;-6904.2393;-5404.876;-1824.9418;0.0;0.0;1838.2656
1430.83;0.7292259;0.2084139;1500.5781;-6907.0195;-5406.4414;-1851.7959;0.0;0.0;1838.2656
1430.835;0.7295006;0.20225894;1501.5283;-6911.3525;-5409.824;-1887.6396;0.0;0.0;1838.2656
1430.84;0.7296416;0.19570336;1501.7942;-6915.43;-5413.6357;-1924.3241;0.0;0.0;1838.2656
1430.845;0.7295704;0.18965417;1501.187;-6918.8486;-5417.6616;-1956.4698;0.0;0.0;1838.2656
1430.85;0.7292932;0.18499936;1499.8439;-6920.948;-5421.1045;-1979.4539;0.0;0.0;1838.2656
1430.855;0.7288848;0.18219902;1498.1086;-6921.6846;-5423.576;-1991.4268;0.0;0.0;1838.2656
1430.86;0.7284403;0.18178579;1496.3508;-6920.4326;-5424.082;-1990.19;0.0;0.0;1838.2656
1430.865;0.7280406;0.18341744;1494.8467;-6917.741;-5422.8945;-1978.1835;0.0;0.0;1838.2656
1430.87;0.7277318;0.18693812;1493.7394;-6913.5117;-5419.7725;-1956.553;0.0;0.0;1838.2656
1430.875;0.7275337;0.19116966;1493.0876;-6909.28;-5416.1924;-1931.9135;0.0;0.0;1838.2656
1430.88;0.72745186;0.19591565;1492.908;-6904.8345;-5411.927;-1905.3809;0.0;0.0;1838.2656
1430.885;0.72748625;0.20060162;1493.2117;-6900.53;-5407.3184;-1880.1461;0.0;0.0;1838.2656
1430.89;0.72763854;0.20461027;1493.9788;-6897.0347;-5403.0557;-1859.5734;0.0;0.0;1838.2656
1430.895;0.72789073;0.20716813;1495.1006;-6894.9053;-5399.8047;-1847.7109;0.0;0.0;1838.2656
1430.9;0.7282008;0.20843606;1496.3872;-6893.6807;-5397.2935;-1843.2919;0.0;0.0;1838.2656
1430.905;0.7285149;0.20825708;1497.6099;-6893.4907;-5395.881;-1846.7242;0.0;0.0;1838.2656
1430.91;0.7287791;0.20649426;1498.5967;-6894.7637;-5396.167;-1858.4194;0.0;0.0;1838.2656
1430.915;0.7289699;0.2038597;1499.269;-6896.6055;-5397.3364;-1874.2932;0.0;0.0;1838.2656
1430.92;0.72907686;0.20089723;1499.601;-6898.488;-5398.8867;-1891.2944;0.0;0.0;1838.2656
1430.925;0.729101;0.19754718;1499.5885;-6900.793;-5401.2046;-1909.7444;0.0;0.0;1838.2656
1430.93;0.72904116;0.19462849;1499.2427;-6902.661;-5403.4185;-1925.1488;0.0;0.0;1838.2656
1430.935;0.7289072;0.19251251;1498.6155;-6903.8047;-5405.1895;-1935.5636;0.0;0.0;1838.2656
1430.94;0.7287186;0.19116911;1497.8281;-6904.382;-5406.5537;-1941.3973;0.0;0.0;1838.2656
1430.945;0.7285178;0.19092202;1497.0635;-6903.95;-5406.8867;-1941.2307;0.0;0.0;1838.2656
1430.95;0.72835106;0.1914778;1496.5068;-6902.9688;-5406.462;-1937.0525;0.0;0.0;1838.2656
1430.955;0.72826034;0.19238217;1496.3033;-6901.7886;-5405.4854;-1931.6581;0.0;0.0;1838.2656
1430.96;0.72826904;0.19320253;1496.5022;-6900.7773;-5404.2754;-1927.5317;0.0;0.0;1838.2656
1430.965;0.7283734;0.19323346;1497.0784;-6900.569;-5403.49;-1928.5134;0.0;0.0;1838.2656
1430.97;0.7285615;0.19217737;1497.968;-6901.2637;-5403.296;-1936.1168;0.0;0.0;1838.2656
1430.975;0.72881234;0.18975727;1499.0684;-6903.0254;-5403.957;-1951.664;0.0;0.0;1838.2656
1430.98;0.72909254;0.18587217;1500.2404;-6905.743;-5405.503;-1975.4335;0.0;0.0;1838.2656
1430.985;0.72936535;0.18058464;1501.2964;-6909.53;-5408.2334;-2006.7052;0.0;0.0;1838.2656
1430.99;0.7295763;0.17379966;1502.0454;-6914.6826;-5412.637;-2045.621;0.0;0.0;1838.2656
1430.995;0.7296922;0.1668089;1502.3766;-6919.3145;-5416.938;-2084.836;0.0;0.0;1838.2656
1431.0;0.72969776;0.15931532;1502.2668;-6924.668;-5422.4014;-2125.9421;0.0;0.0;1838.2656
1431.005;0.729603;0.15243812;1501.7772;-6929.1426;-5427.365;-2162.8892;0.0;0.0;1838.2656
1431.01;0.72942907;0.14642265;1500.9801;-6933.0244;-5432.0444;-2194.469;0.0;0.0;1838.2656
1431.015;0.72919196;0.14191443;1499.9487;-6935.216;-5435.267;-2217.268;0.0;0.0;1838.2656
1431.02;0.72891223;0.1387176;1498.7712;-6936.657;-5437.8857;-2232.543;0.0;0.0;1838.2656
1431.025;0.728613;0.1371157;1497.5371;-6936.802;-5439.2646;-2238.909;0.0;0.0;1838.2656
1431.03;0.72831684;0.13697748;1496.373;-6936.0376;-5439.6646;-2237.343;0.0;0.0;1838.2656
1431.035;0.7280641;0.13811971;1495.4324;-6934.5176;-5439.085;-2229.1626;0.0;0.0;1838.2656
1431.04;0.7278884;0.13995244;1494.8619;-6932.711;-5437.849;-2217.9146;0.0;0.0;1838.2656
1431.045;0.7278225;0.14278334;1494.7488;-6929.6865;-5434.9375;-2202.0764;0.0;0.0;1838.2656
1431.05;0.7278677;0.14531165;1495.0481;-6927.3374;-5432.289;-2188.732;0.0;0.0;1838.2656
1431.055;0.72799367;0.1474625;1495.61;-6925.189;-5429.579;-2177.9941;0.0;0.0;1838.2656
1431.06;0.7281557;0.14856343;1496.2719;-6924.2563;-5427.9844;-2173.2466;0.0;0.0;1838.2656
1431.065;0.7283215;0.14908032;1496.9373;-6923.669;-5426.7314;-2171.7268;0.0;0.0;1838.2656
1431.07;0.72847754;0.14903052;1497.54;-6923.62;-5426.08;-2173.207;0.0;0.0;1838.2656
1431.075;0.7286029;0.14824355;1497.9587;-6924.5283;-5426.5693;-2178.3845;0.0;0.0;1838.2656
1431.08;0.7286568;0.14759983;1498.0024;-6925.089;-5427.0864;-2182.0217;0.0;0.0;1838.2656
1431.085;0.72858906;0.14763863;1497.5062;-6924.925;-5427.4185;-2180.8154;0.0;0.0;1838.2656
1431.09;0.72837895;0.14875595;1496.4464;-6923.9463;-5427.5;-2172.534;0.0;0.0;1838.2656
1431.095;0.72804654;0.15169333;1494.968;-6921.611;-5426.6426;-2153.3782;0.0;0.0;1838.2656
1431.1;0.7276514;0.15669437;1493.3701;-6917.576;-5424.206;-2122.6025;0.0;0.0;1838.2656
1431.105;0.72728103;0.16346043;1491.9683;-6912.2017;-5420.2334;-2082.4854;0.0;0.0;1838.2656
1431.11;0.72699857;0.17194161;1491.0093;-6905.3613;-5414.352;-2033.7955;0.0;0.0;1838.2656
1431.115;0.7268568;0.18072072;1490.6658;-6898.5195;-5407.8535;-1984.6935;0.0;0.0;1838.2656
