time;temperature;pressure;kinetic_energy;potential_energy;total_energy;virial;msd;diffusion;volume
2000.005;0.5014927;-0.07591764;1032.2212;-7790.583;-6758.362;-2483.1128;0.0;0.0;1838.2656
2000.01;0.5014557;-0.0799628;1032.1228;-7793.347;-6761.2246;-2505.224;0.0;0.0;1838.2656
2000.015;0.5014353;-0.08413609;1032.0968;-7796.7676;-6764.671;-2528.187;0.0;0.0;1838.2656
2000.02;0.5014321;-0.088149875;1032.1064;-7800.05;-6767.9434;-2550.3416;0.0;0.0;1838.2656
2000.025;0.5014239;-0.09209606;1032.0427;-7803.4717;-6771.4287;-2571.9766;0.0;0.0;1838.2656
2000.03;0.5013797;-0.09547559;1031.7958;-7806.3867;-6774.591;-2590.12;0.0;0.0;1838.2656
2000.035;0.50127953;-0.098047726;1031.2919;-7808.715;-6777.423;-2603.297;0.0;0.0;1838.2656
2000.04;0.501111;-0.0994049;1030.5208;-7810.1147;-6779.5938;-2609.2393;0.0;0.0;1838.2656
2000.045;0.5008849;-0.09942301;1029.532;-7810.5894;-6781.0576;-2607.3618;0.0;0.0;1838.2656
2000.05;0.5006167;-0.097890764;1028.3967;-7810.0454;-6781.6484;-2596.641;0.0;0.0;1838.2656
2000.055;0.5003273;-0.09457067;1027.21;-7808.1753;-6780.9653;-2575.958;0.0;0.0;1838.2656
2000.06;0.5000418;-0.08937699;1026.0632;-7804.99;-6778.927;-2545.0225;0.0;0.0;1838.2656
2000.065;0.49977922;-0.08295156;1025.0316;-7801.096;-6776.0645;-2507.5242;0.0;0.0;1838.2656
2000.07;0.49955478;-0.075166866;1024.1661;-7796.3574;-6772.1914;-2462.8623;0.0;0.0;1838.2656
2000.075;0.49937785;-0.06638672;1023.50146;-7790.9634;-6767.462;-2413.1123;0.0;0.0;1838.2656
2000.08;0.49925488;-0.056720283;1023.07117;-7784.7803;-6761.709;-2358.943;0.0;0.0;1838.2656
2000.085;0.49919504;-0.0469417;1022.9103;-7778.6865;-6755.7764;-2304.6946;0.0;0.0;1838.2656
2000.09;0.49920642;-0.037440114;1023.0772;-7773.0312;-6749.954;-2252.6292;0.0;0.0;1838.2656
2000.095;0.49930856;-0.02851023;1023.6261;-7767.552;-6743.926;-2204.4802;0.0;0.0;1838.2656
2000.1;0.4995059;-0.021078546;1024.5823;-7763.469;-6738.8867;-2165.4084;0.0;0.0;1838.2656
2000.105;0.49980265;-0.015222113;1025.9131;-7760.367;-6734.454;-2135.773;0.0;0.0;1838.2656
2000.11;0.50017387;-0.011611466;1027.5134;-7758.876;-6731.3623;-2119.0618;0.0;0.0;1838.2656
2000.115;0.500589;-0.010422175;1029.2206;-7759.082;-6729.8613;-2115.9172;0.0;0.0;1838.2656
2000.12;0.5009975;-0.0116077205;1030.8207;-7760.895;-6730.074;-2125.6555;0.0;0.0;1838.2656
2000.125;0.5013475;-0.014882821;1032.1326;-7763.9985;-6731.866;-2146.3408;0.0;0.0;1838.2656
2000.13;0.5016068;-0.019747263;1033.0542;-7767.963;-6734.9087;-2175.0105;0.0;0.0;1838.2656
2000.135;0.50176394;-0.025562765;1033.5651;-7772.33;-6738.765;-2208.1035;0.0;0.0;1838.2656
2000.14;0.50182617;-0.031973276;1033.7367;-7776.814;-6743.077;-2243.7996;0.0;0.0;1838.2656
2000.145;0.50182325;-0.0389823;1033.6697;-7781.8193;-6748.1494;-2282.3188;0.0;0.0;1838.2656
2000.15;0.50177455;-0.045732994;1033.4532;-7786.419;-6752.966;-2319.1147;0.0;0.0;1838.2656
2000.155;0.50170314;-0.052438915;1033.1577;-7791.004;-6757.846;-2355.5054;0.0;0.0;1838.2656
2000.16;0.5016183;-0.058705125;1032.8;-7795.0913;-6762.291;-2389.347;0.0;0.0;1838.2656
2000.165;0.5015178;-0.06435109;1032.3723;-7798.4937;-6766.121;-2419.628;0.0;0.0;1838.2656
2000.17;0.50139946;-0.06947528;1031.8655;-7801.622;-6769.757;-2446.873;0.0;0.0;1838.2656
2000.175;0.5012617;-0.0738644;1031.2758;-7804.213;-6772.937;-2469.8987;0.0;0.0;1838.2656
2000.18;0.50110435;-0.077393055;1030.5969;-7806.095;-6775.498;-2488.0007;0.0;0.0;1838.2656
2000.185;0.50092494;-0.07983912;1029.8331;-7807.167;-6777.334;-2499.963;0.0;0.0;1838.2656
2000.19;0.50072944;-0.08112111;1029.021;-7807.285;-6778.264;-2505.4084;0.0;0.0;1838.2656
2000.195;0.5005312;-0.08120916;1028.2249;-7806.462;-6778.2373;-2504.3018;0.0;0.0;1838.2656
2000.2;0.50034904;-0.080630854;1027.511;-7805.4536;-6777.9424;-2499.6848;0.0;0.0;1838.2656
2000.205;0.5001947;-0.07911036;1026.9314;-7803.6543;-6776.7227;-2490.1404;0.0;0.0;1838.2656
2000.21;0.5000797;-0.07685333;1026.5164;-7801.25;-6774.7334;-2476.8633;0.0;0.0;1838.2656
2000.215;0.50000674;-0.07415142;1026.2725;-7798.4688;-6772.1963;-2461.4749;0.0;0.0;1838.2656
2000.22;0.49997532;-0.07113765;1026.2056;-7795.428;-6769.2227;-2444.7207;0.0;0.0;1838.2656
2000.225;0.49999034;-0.068449296;1026.3508;-7792.7856;-6766.4346;-2430.1855;0.0;0.0;1838.2656
2000.23;0.5000625;-0.06614002;1026.7382;-7790.455;-6763.717;-2418.225;0.0;0.0;1838.2656
2000.235;0.50019366;-0.06472613;1027.3593;-7789.055;-6761.696;-2411.67;0.0;0.0;1838.2656
2000.24;0.50037366;-0.06416916;1028.1318;-7788.213;-6760.081;-2410.1436;0.0;0.0;1838.2656
2000.245;0.5005678;-0.06464697;1028.8911;-7788.2773;-6759.386;-2414.297;0.0;0.0;1838.2656
2000.25;0.5007308;-0.066055685;1029.456;-7789.173;-6759.717;-2423.1958;0.0;0.0;1838.2656
2000.255;0.5008237;-0.06810324;1029.7278;-7790.462;-6760.7344;-2435.031;0.0;0.0;1838.2656
2000.26;0.50084394;-0.07007513;1029.7334;-7791.578;-6761.8447;-2445.917;0.0;0.0;1838.2656
2000.265;0.50081366;-0.071950816;1029.5886;-7792.509;-6762.92;-2455.9714;0.0;0.0;1838.2656
2000.27;0.5007687;-0.07365959;1029.45;-7793.3594;-6763.909;-2465.1177;0.0;0.0;1838.2656
2000.275;0.50074744;-0.074967146;1029.4335;-7793.588;-6764.1543;-2472.2954;0.0;0.0;1838.2656
2000.28;0.5007628;-0.07662999;1029.5444;-7794.4375;-6764.893;-2481.6877;0.0;0.0;1838.2656
2000.285;0.5007989;-0.078165315;1029.6885;-7795.188;-6765.4995;-2490.4429;0.0;0.0;1838.2656
2000.29;0.50082326;-0.07983204;1029.7213;-7796.0684;-6766.347;-2499.7002;0.0;0.0;1838.2656
2000.295;0.5007985;-0.081531085;1029.5093;-7797.3145;-6767.805;-2508.646;0.0;0.0;1838.2656
2000.3;0.5007024;-0.082313456;1029.0061;-7797.51;-6768.504;-2511.954;0.0;0.0;1838.2656
2000.305;0.5005404;-0.08197312;1028.2839;-7796.759;-6768.4746;-2508.633;0.0;0.0;1838.2656
2000.31;0.50034773;-0.08068802;1027.502;-7795.5186;-6768.0166;-2499.982;0.0;0.0;1838.2656
2000.315;0.50016725;-0.0783743;1026.8489;-7793.451;-6766.6025;-2485.916;0.0;0.0;1838.2656
2000.32;0.5000464;-0.07527764;1026.4845;-7791.0527;-6764.5684;-2468.1099;0.0;0.0;1838.2656
2000.325;0.5000104;-0.072013125;1026.4675;-7788.8223;-6762.3545;-2450.0728;0.0;0.0;1838.2656
2000.33;0.50005597;-0.06881469;1026.7441;-7786.825;-6760.081;-2432.9873;0.0;0.0;1838.2656
2000.335;0.5001563;-0.065826826;1027.1868;-7785.117;-6757.9307;-2417.395;0.0;0.0;1838.2656
2000.34;0.50027484;-0.063405454;1027.6448;-7784.0093;-6756.3643;-2404.9578;0.0;0.0;1838.2656
2000.345;0.50037605;-0.061272494;1027.9993;-7783.1665;-6755.167;-2393.9038;0.0;0.0;1838.2656
2000.35;0.5004405;-0.05941831;1028.1857;-7782.573;-6754.3877;-2384.0513;0.0;0.0;1838.2656
2000.355;0.5004593;-0.057825826;1028.1923;-7782.3945;-6754.202;-2375.2822;0.0;0.0;1838.2656
2000.36;0.5004376;-0.05595152;1028.0491;-7781.786;-6753.7373;-2364.6594;0.0;0.0;1838.2656
2000.365;0.50038666;-0.053744327;1027.818;-7780.8486;-6753.031;-2352.0251;0.0;0.0;1838.2656
2000.37;0.50032765;-0.05154346;1027.5883;-7780.0073;-6752.419;-2339.4282;0.0;0.0;1838.2656
2000.375;0.5002831;-0.049029138;1027.4646;-7778.6816;-6751.217;-2325.315;0.0;0.0;1838.2656
2000.38;0.5002807;-0.046880625;1027.5581;-7777.6914;-6750.1333;-2313.6533;0.0;0.0;1838.2656
2000.385;0.50034297;-0.04500453;1027.9109;-7776.658;-6748.747;-2304.0127;0.0;0.0;1838.2656
2000.39;0.5004623;-0.04400348;1028.4662;-7776.332;-6747.8657;-2299.6025;0.0;0.0;1838.2656
2000.395;0.50061464;-0.044153955;1029.1051;-7776.8926;-6747.7876;-2301.7102;0.0;0.0;1838.2656
2000.4;0.50076485;-0.045169678;1029.6855;-7777.962;-6748.2764;-2308.4727;0.0;0.0;1838.2656
2000.405;0.5008817;-0.04694146;1030.109;-7779.4346;-6749.3257;-2319.0906;0.0;0.0;1838.2656
2000.41;0.500952;-0.049275532;1030.335;-7781.184;-6750.849;-2332.4146;0.0;0.0;1838.2656
2000.415;0.50097287;-0.05180173;1030.3749;-7782.9697;-6752.5947;-2346.4258;0.0;0.0;1838.2656
2000.42;0.5009556;-0.054425944;1030.2839;-7784.6787;-6754.3945;-2360.7158;0.0;0.0;1838.2656
2000.425;0.5009169;-0.05700781;1030.134;-7786.218;-6756.084;-2374.6545;0.0;0.0;1838.2656
2000.43;0.50087595;-0.05931986;1029.9962;-7787.5234;-6757.5273;-2387.1294;0.0;0.0;1838.2656
2000.435;0.500848;-0.061806954;1029.9341;-7789.0205;-6759.0864;-2400.721;0.0;0.0;1838.2656
2000.44;0.5008461;-0.06397112;1029.9686;-7790.0747;-6760.106;-2412.725;0.0;0.0;1838.2656
2000.445;0.5008652;-0.066485785;1030.0696;-7791.674;-6761.6045;-2426.7947;0.0;0.0;1838.2656
2000.45;0.50089365;-0.069283344;1030.1836;-7793.7046;-6763.521;-2442.4507;0.0;0.0;1838.2656
2000.455;0.5009157;-0.072066516;1030.2302;-7795.619;-6765.3887;-2457.8926;0.0;0.0;1838.2656
2000.46;0.50090855;-0.074450575;1030.1398;-7796.9404;-6766.801;-2470.8594;0.0;0.0;1838.2656
2000.465;0.5008626;-0.076409355;1029.8851;-7798.011;-6768.126;-2481.1523;0.0;0.0;1838.2656
2000.47;0.5007774;-0.07808345;1029.4924;-7798.9355;-6769.4434;-2489.599;0.0;0.0;1838.2656
2000.475;0.5006682;-0.079266116;1029.0468;-7799.5703;-6770.5234;-2495.23;0.0;0.0;1838.2656
2000.48;0.50056374;-0.07966927;1028.675;-7799.7544;-6771.079;-2496.71;0.0;0.0;1838.2656
2000.485;0.50049675;-0.079729825;1028.5068;-7799.703;-6771.1963;-2496.7075;0.0;0.0;1838.2656
2000.49;0.500493;-0.07930826;1028.6084;-7799.1113;-6770.503;-2494.5857;0.0;0.0;1838.2656
2000.495;0.50055426;-0.07935273;1028.9366;-7799.3174;-6770.381;-2495.4875;0.0;0.0;1838.2656
2000.5;0.5006521;-0.079865456;1029.3439;-7800.2256;-6770.882;-2499.1294;0.0;0.0;1838.2656
2000.505;0.50074124;-0.080658704;1029.6475;-7801.3506;-6771.703;-2504.1113;0.0;0.0;1838.2656
2000.51;0.50078017;-0.08142938;1029.7109;-7802.7173;-6773.0063;-2508.4883;0.0;0.0;1838.2656
2000.515;0.50074977;-0.0818203;1029.4835;-7803.6074;-6774.124;-2510.1895;0.0;0.0;1838.2656
2000.52;0.50064874;-0.08141581;1028.988;-7803.936;-6774.948;-2506.9678;0.0;0.0;1838.2656
2000.525;0.50049365;-0.080307126;1028.3035;-7803.86;-6775.5566;-2499.4844;0.0;0.0;1838.2656
2000.53;0.5003068;-0.07803018;1027.5256;-7802.9297;-6775.4043;-2485.3718;0.0;0.0;1838.2656
2000.535;0.50011325;-0.07444046;1026.7478;-7800.778;-6774.0303;-2464.0195;0.0;0.0;1838.2656
2000.54;0.49993208;-0.06991569;1026.0304;-7798.217;-6772.1865;-2437.6316;0.0;0.0;1838.2656
2000.545;0.49977252;-0.06466995;1025.4093;-7795.1865;-6769.7773;-2407.4602;0.0;0.0;1838.2656
2000.55;0.49964055;-0.058408085;1024.8954;-7791.189;-6766.2935;-2371.8994;0.0;0.0;1838.2656
2000.555;0.49953538;-0.051677532;1024.4956;-7786.796;-6762.3003;-2333.9824;0.0;0.0;1838.2656
2000.56;0.49946117;-0.04488334;1024.219;-7782.6533;-6758.4346;-2295.9604;0.0;0.0;1838.2656
2000.565;0.49941954;-0.03808721;1024.1047;-7778.4985;-6754.3936;-2258.2527;0.0;0.0;1838.2656
2000.57;0.49942857;-0.031240689;1024.2443;-7773.954;-6749.71;-2220.7747;0.0;0.0;1838.2656
2000.575;0.49951422;-0.025043376;1024.7274;-7770.0215;-6745.294;-2187.564;0.0;0.0;1838.2656
2000.58;0.49969116;-0.020276533;1025.5884;-7767.281;-6741.6924;-2162.9978;0.0;0.0;1838.2656
2000.585;0.49995634;-0.016998583;1026.7979;-7765.635;-6738.837;-2147.3394;0.0;0.0;1838.2656
2000.59;0.50029373;-0.015763767;1028.2476;-7765.618;-6737.3706;-2143.4292;0.0;0.0;1838.2656
2000.595;0.50066185;-0.016598348;1029.7477;-7767.0366;-6737.289;-2151.032;0.0;0.0;1838.2656
2000.6;0.5010096;-0.019142546;1031.1025;-7769.426;-6738.323;-2167.7722;0.0;0.0;1838.2656
2000.605;0.5012948;-0.023267018;1032.1501;-7772.7744;-6740.624;-2192.6133;0.0;0.0;1838.2656
2000.61;0.5014863;-0.028672677;1032.8118;-7777.146;-6744.334;-2223.7476;0.0;0.0;1838.2656
2000.615;0.5015815;-0.034666885;1033.0808;-7781.872;-6748.791;-2257.3425;0.0;0.0;1838.2656
2000.62;0.50158304;-0.040743537;1032.9857;-7786.56;-6753.574;-2290.6638;0.0;0.0;1838.2656
2000.625;0.50150394;-0.046177384;1032.5684;-7790.5205;-6757.952;-2319.7957;0.0;0.0;1838.2656
2000.63;0.50135195;-0.050780322;1031.872;-7793.7817;-6761.9097;-2343.787;0.0;0.0;1838.2656
2000.635;0.5011417;-0.054367624;1030.9458;-7796.383;-6765.437;-2361.718;0.0;0.0;1838.2656
2000.64;0.5008838;-0.056284916;1029.8478;-7797.5557;-6767.708;-2370.0955;0.0;0.0;1838.2656
2000.645;0.5005968;-0.056740955;1028.6462;-7797.865;-6769.2188;-2370.2073;0.0;0.0;1838.2656
2000.65;0.5002965;-0.055495054;1027.4265;-7796.922;-6769.495;-2360.897;0.0;0.0;1838.2656
2000.655;0.5000092;-0.052524958;1026.2861;-7794.506;-6768.2197;-2342.2368;0.0;0.0;1838.2656
2000.66;0.49975526;-0.04846998;1025.318;-7791.7295;-6766.4116;-2317.938;0.0;0.0;1838.2656
2000.665;0.4995587;-0.043090116;1024.6061;-7787.787;-6763.181;-2286.8455;0.0;0.0;1838.2656
2000.67;0.4994339;-0.037168883;1024.2014;-7783.6416;-6759.4404;-2253.3816;0.0;0.0;1838.2656
2000.675;0.49938983;-0.031032545;1024.133;-7779.421;-6755.288;-2219.4043;0.0;0.0;1838.2656
2000.68;0.49942887;-0.025267195;1024.4144;-7775.6743;-6751.26;-2188.1724;0.0;0.0;1838.2656
2000.685;0.49955288;-0.020131562;1025.0317;-7772.459;-6747.4272;-2161.085;0.0;0.0;1838.2656
2000.69;0.49974957;-0.01610057;1025.9227;-7769.998;-6744.075;-2140.6367;0.0;0.0;1838.2656
2000.695;0.49999687;-0.013568894;1026.9734;-7768.956;-6741.9824;-2128.7764;0.0;0.0;1838.2656
2000.7;0.5002585;-0.012232809;1028.0148;-7768.6323;-6740.6177;-2123.491;0.0;0.0;1838.2656
2000.705;0.50048935;-0.0122080315;1028.8918;-7769.0854;-6740.1934;-2125.1084;0.0;0.0;1838.2656
2000.71;0.50066125;-0.013017913;1029.4904;-7769.961;-6740.4707;-2130.772;0.0;0.0;1838.2656
2000.715;0.5007518;-0.014570524;1029.7537;-7771.4365;-6741.6826;-2139.8608;0.0;0.0;1838.2656
2000.72;0.50076115;-0.016231017;1029.7073;-7772.7666;-6743.0596;-2148.9253;0.0;0.0;1838.2656
2000.725;0.5007057;-0.017596308;1029.4304;-7773.5156;-6744.085;-2155.901;0.0;0.0;1838.2656
2000.73;0.50061053;-0.018971357;1029.0345;-7774.436;-6745.4014;-2162.6924;0.0;0.0;1838.2656
2000.735;0.50050545;-0.019620385;1028.6422;-7774.5166;-6745.8745;-2165.4868;0.0;0.0;1838.2656
2000.74;0.5004207;-0.020002859;1028.3647;-7774.333;-6745.9683;-2167.0413;0.0;0.0;1838.2656
2000.745;0.5003777;-0.020278333;1028.2847;-7774.0547;-6745.77;-2168.4001;0.0;0.0;1838.2656
2000.75;0.5003922;-0.02103961;1028.4343;-7774.3584;-6745.924;-2172.898;0.0;0.0;1838.2656
2000.755;0.50046057;-0.021939753;1028.79;-7774.581;-6745.791;-2178.5732;0.0;0.0;1838.2656
2000.76;0.50057083;-0.02339007;1029.266;-7775.2275;-6745.9614;-2187.5234;0.0;0.0;1838.2656
2000.765;0.5006898;-0.025715742;1029.7286;-7776.7124;-6746.984;-2201.2744;0.0;0.0;1838.2656
2000.77;0.5007856;-0.028344342;1030.035;-7778.301;-6748.2656;-2216.3833;0.0;0.0;1838.2656
2000.775;0.5008223;-0.030973954;1030.0758;-7779.7183;-6749.6426;-2230.9666;0.0;0.0;1838.2656
2000.78;0.50078756;-0.03368436;1029.8308;-7781.2856;-6751.455;-2245.424;0.0;0.0;1838.2656
2000.785;0.5006893;-0.035953145;1029.369;-7782.5796;-6753.2104;-2257.0125;0.0;0.0;1838.2656
2000.79;0.500556;-0.03756254;1028.8052;-7783.4424;-6754.637;-2264.7603;0.0;0.0;1838.2656
2000.795;0.5004163;-0.03832722;1028.2671;-7783.531;-6755.2637;-2267.9011;0.0;0.0;1838.2656
2000.8;0.500302;-0.038603187;1027.8766;-7783.229;-6755.3525;-2268.6418;0.0;0.0;1838.2656
2000.805;0.50023836;-0.038193386;1027.7117;-7782.3643;-6754.6523;-2266.052;0.0;0.0;1838.2656
2000.81;0.5002347;-0.038221397;1027.791;-7782.227;-6754.436;-2266.3652;0.0;0.0;1838.2656
2000.815;0.500284;-0.038124997;1028.0394;-7781.8433;-6753.8037;-2266.3306;0.0;0.0;1838.2656
2000.82;0.5003529;-0.038329285;1028.3059;-7781.7573;-6753.451;-2267.99;0.0;0.0;1838.2656
2000.825;0.5003994;-0.038695198;1028.4209;-7781.8633;-6753.4424;-2270.238;0.0;0.0;1838.2656
2000.83;0.50038755;-0.038811818;1028.2778;-7781.7124;-6753.4346;-2270.595;0.0;0.0;1838.2656
2000.835;0.5003069;-0.038683757;1027.8662;-7781.5244;-6753.658;-2269.0654;0.0;0.0;1838.2656
2000.84;0.5001674;-0.037644196;1027.245;-7780.383;-6753.1377;-2262.09;0.0;0.0;1838.2656
2000.845;0.49998885;-0.035454128;1026.4717;-7778.3936;-6751.922;-2248.4656;0.0;0.0;1838.2656
2000.85;0.49978048;-0.03231367;1025.5918;-7775.8257;-6750.234;-2229.387;0.0;0.0;1838.2656
2000.855;0.49955496;-0.02787678;1024.654;-7772.0596;-6747.4053;-2203.043;0.0;0.0;1838.2656
2000.86;0.49932465;-0.022197055;1023.729;-7767.4746;-6743.7456;-2169.8704;0.0;0.0;1838.2656
2000.865;0.4991139;-0.015525055;1022.91425;-7762.263;-6739.349;-2131.446;0.0;0.0;1838.2656
2000.87;0.49894622;-0.008110646;1022.32556;-7756.3745;-6734.049;-2089.3796;0.0;0.0;1838.2656
2000.875;0.49885345;-0.00021658483;1022.0771;-7750.199;-6728.122;-2045.3486;0.0;0.0;1838.2656
2000.88;0.4988564;0.007682052;1022.235;-7743.8906;-6721.656;-2002.105;0.0;0.0;1838.2656
2000.885;0.49896282;0.014975969;1022.8168;-7738.105;-6715.288;-1963.0441;0.0;0.0;1838.2656
2000.89;0.49916935;0.020784045;1023.78174;-7733.688;-6709.9062;-1932.9437;0.0;0.0;1838.2656
2000.895;0.49945673;0.024934592;1025.0564;-7730.624;-6705.5674;-1912.6036;0.0;0.0;1838.2656
2000.9;0.49980688;0.02699949;1026.5574;-7729.257;-6702.699;-1904.218;0.0;0.0;1838.2656
2000.905;0.50019544;0.026987486;1028.1791;-7729.3057;-6701.1265;-1907.5276;0.0;0.0;1838.2656
2000.91;0.5005937;0.024545547;1029.7888;-7731.1797;-6701.3906;-1924.214;0.0;0.0;1838.2656
2000.915;0.50096565;0.020213954;1031.2524;-7734.3447;-6703.0923;-1951.029;0.0;0.0;1838.2656
2000.92;0.5012848;0.014395783;1032.4781;-7738.232;-6705.754;-1985.5665;0.0;0.0;1838.2656
2000.925;0.50153685;0.006762762;1033.4344;-7743.6274;-6710.193;-2029.5736;0.0;0.0;1838.2656
2000.93;0.5017232;-0.0018205864;1034.1289;-7749.5522;-6715.4233;-2078.298;0.0;0.0;1838.2656
2000.935;0.50184757;-0.010919679;1034.5801;-7755.549;-6720.9688;-2129.38;0.0;0.0;1838.2656
2000.94;0.5019136;-0.020526046;1034.7678;-7762.049;-6727.2812;-2182.7327;0.0;0.0;1838.2656
2000.945;0.50190556;-0.030047087;1034.6116;-7768.4307;-6733.8193;-2234.9268;0.0;0.0;1838.2656
2000.95;0.501801;-0.03896859;1034.0251;-7774.3325;-6740.3076;-2282.954;0.0;0.0;1838.2656
2000.955;0.5015842;-0.046646316;1032.9836;-7779.2324;-6746.249;-2323.2122;0.0;0.0;1838.2656
2000.96;0.50126565;-0.0523784;1031.5796;-7782.4434;-6750.864;-2352.0154;0.0;0.0;1838.2656
2000.965;0.5008849;-0.056106783;1029.998;-7784.0825;-6754.0845;-2369.4136;0.0;0.0;1838.2656
2000.97;0.5004947;-0.057967026;1028.472;-7784.423;-6755.9507;-2376.6204;0.0;0.0;1838.2656
2000.975;0.50015575;-0.05800588;1027.2361;-7783.4775;-6756.241;-2374.3628;0.0;0.0;1838.2656
2000.98;0.4999179;-0.056705;1026.4626;-7781.525;-6755.0625;-2365.6418;0.0;0.0;1838.2656
2000.985;0.49980924;-0.05492857;1026.2197;-7779.5063;-6753.2866;-2355.3594;0.0;0.0;1838.2656
2000.99;0.49982893;-0.053084508;1026.4712;-7777.4404;-6750.969;-2345.6926;0.0;0.0;1838.2656
2000.995;0.4999541;-0.052013755;1027.0994;-7776.29;-6749.1904;-2341.044;0.0;0.0;1838.2656
2001.0;0.50014704;-0.051996846;1027.9263;-7776.259;-6748.3325;-2342.6045;0.0;0.0;1838.2656
2001.005;0.50035745;-0.05303377;1028.768;-7777.046;-6748.278;-2350.0063;0.0;0.0;1838.2656
2001.01;0.50054675;-0.054740887;1029.4653;-7778.159;-6748.694;-2360.8154;0.0;0.0;1838.2656
2001.015;0.50067896;-0.057155658;1029.8989;-7779.96;-6750.061;-2374.9998;0.0;0.0;1838.2656
2001.02;0.5007356;-0.059554696;1030.0151;-7781.417;-6751.402;-2388.4624;0.0;0.0;1838.2656
2001.025;0.50071317;-0.062043305;1029.8191;-7783.1973;-6753.378;-2401.7944;0.0;0.0;1838.2656
2001.03;0.50062096;-0.063941784;1029.3713;-7784.4307;-6755.0596;-2411.3687;0.0;0.0;1838.2656
2001.035;0.5004819;-0.06510517;1028.7705;-7785.2188;-6756.448;-2416.5828;0.0;0.0;1838.2656
2001.04;0.50032246;-0.065207995;1028.1348;-7785.1377;-6757.003;-2415.8784;0.0;0.0;1838.2656
2001.045;0.50017285;-0.06464641;1027.5538;-7784.694;-6757.14;-2411.6194;0.0;0.0;1838.2656
2001.05;0.5000453;-0.06326;1027.0955;-7783.552;-6756.456;-2403.057;0.0;0.0;1838.2656
2001.055;0.4999577;-0.061458547;1026.7933;-7782.3203;-6755.527;-2392.518;0.0;0.0;1838.2656
2001.06;0.499907;-0.059265267;1026.6389;-7780.6333;-6753.994;-2380.1138;0.0;0.0;1838.2656
2001.065;0.49989122;-0.057050616;1026.6221;-7778.9033;-6752.2812;-2367.8667;0.0;0.0;1838.2656
2001.07;0.49990717;-0.055052873;1026.7516;-7777.507;-6750.7554;-2357.1086;0.0;0.0;1838.2656
2001.075;0.49996305;-0.05338359;1027.0493;-7776.246;-6749.197;-2348.4983;0.0;0.0;1838.2656
2001.08;0.50005966;-0.052496143;1027.5165;-7775.7754;-6748.259;-2344.5386;0.0;0.0;1838.2656
2001.085;0.5001954;-0.05228495;1028.1239;-7775.664;-6747.54;-2344.5886;0.0;0.0;1838.2656
2001.09;0.5003555;-0.053217534;1028.8019;-7776.463;-6747.661;-2351.0876;0.0;0.0;1838.2656
