time;temperature;pressure;kinetic_energy;potential_energy;total_energy;virial;msd;diffusion;volume
3190.005;0.02400246;-0.803104;49.2611;-9887.447;-9838.187;-4527.4775;0.0;0.0;1838.2656
3190.01;0.023997871;-0.80273044;49.24604;-9887.252;-9838.006;-4525.387;0.0;0.0;1838.2656
3190.015;0.023993256;-0.80238116;49.231014;-9887.18;-9837.948;-4523.431;0.0;0.0;1838.2656
3190.02;0.023988696;-0.8019578;49.216366;-9886.979;-9837.762;-4521.067;0.0;0.0;1838.2656
3190.025;0.023984274;-0.8016066;49.202187;-9886.922;-9837.72;-4519.102;0.0;0.0;1838.2656
3190.03;0.023979934;-0.80112976;49.18834;-9886.7705;-9837.582;-4516.4443;0.0;0.0;1838.2656
3190.035;0.023975732;-0.80072546;49.17532;-9886.748;-9837.572;-4514.189;0.0;0.0;1838.2656
3190.04;0.023971813;-0.80021363;49.163708;-9886.572;-9837.408;-4511.343;0.0;0.0;1838.2656
3190.045;0.023968318;-0.7995753;49.15387;-9886.158;-9837.004;-4507.803;0.0;0.0;1838.2656
3190.05;0.023965333;-0.7990722;49.146492;-9886.033;-9836.887;-4505.0137;0.0;0.0;1838.2656
3190.055;0.023963042;-0.79845846;49.142357;-9885.734;-9836.592;-4501.621;0.0;0.0;1838.2656
3190.06;0.02396167;-0.7980265;49.14147;-9885.696;-9836.555;-4499.237;0.0;0.0;1838.2656
3190.065;0.023960955;-0.7975408;49.143665;-9885.555;-9836.411;-4496.563;0.0;0.0;1838.2656
3190.07;0.02396111;-0.7971401;49.149776;-9885.568;-9836.419;-4494.3657;0.0;0.0;1838.2656
3190.075;0.023962285;-0.7965403;49.16053;-9885.246;-9836.086;-4491.079;0.0;0.0;1838.2656
3190.08;0.023964694;-0.7960094;49.17424;-9884.937;-9835.763;-4488.1787;0.0;0.0;1838.2656
3190.085;0.02396726;-0.7955467;49.19053;-9884.68;-9835.489;-4485.659;0.0;0.0;1838.2656
3190.09;0.02397088;-0.7952113;49.21029;-9884.711;-9835.501;-4483.8496;0.0;0.0;1838.2656
3190.095;0.02397508;-0.7949075;49.232185;-9884.693;-9835.461;-4482.218;0.0;0.0;1838.2656
3190.1;0.023979638;-0.79469424;49.254307;-9884.774;-9835.5205;-4481.086;0.0;0.0;1838.2656
3190.105;0.023983885;-0.79446113;49.27546;-9884.757;-9835.481;-4479.843;0.0;0.0;1838.2656
3190.11;0.023987884;-0.7942675;49.296;-9884.732;-9835.437;-4478.816;0.0;0.0;1838.2656
3190.115;0.023991749;-0.79404867;49.314247;-9884.606;-9835.292;-4477.6455;0.0;0.0;1838.2656
3190.12;0.023994567;-0.793935;49.329002;-9884.588;-9835.259;-4477.0483;0.0;0.0;1838.2656
3190.125;0.023996677;-0.7938333;49.33999;-9884.657;-9835.317;-4476.51;0.0;0.0;1838.2656
3190.13;0.023997597;-0.79383475;49.346092;-9884.783;-9835.4375;-4476.53;0.0;0.0;1838.2656
3190.135;0.02399731;-0.79382557;49.34666;-9884.839;-9835.492;-4476.48;0.0;0.0;1838.2656
3190.14;0.023995535;-0.7937455;49.341705;-9884.822;-9835.48;-4476.029;0.0;0.0;1838.2656
3190.145;0.02399257;-0.7937826;49.331528;-9885.02;-9835.688;-4476.213;0.0;0.0;1838.2656
3190.15;0.023988295;-0.7937018;49.31703;-9884.975;-9835.657;-4475.739;0.0;0.0;1838.2656
3190.155;0.023983257;-0.79360235;49.298775;-9884.956;-9835.657;-4475.1533;0.0;0.0;1838.2656
3190.16;0.023977233;-0.79350775;49.277092;-9884.893;-9835.615;-4474.5884;0.0;0.0;1838.2656
3190.165;0.023970574;-0.7934941;49.25286;-9885.039;-9835.786;-4474.465;0.0;0.0;1838.2656
3190.17;0.023963418;-0.7933472;49.227806;-9884.995;-9835.768;-4473.6045;0.0;0.0;1838.2656
3190.175;0.023956418;-0.79321164;49.202557;-9885.021;-9835.819;-4472.806;0.0;0.0;1838.2656
3190.18;0.02394926;-0.7930274;49.178112;-9884.938;-9835.761;-4471.741;0.0;0.0;1838.2656
3190.185;0.023942731;-0.79282147;49.15653;-9884.8125;-9835.656;-4470.5625;0.0;0.0;1838.2656
3190.19;0.023937022;-0.7925402;49.137955;-9884.732;-9835.595;-4468.974;0.0;0.0;1838.2656
3190.195;0.023932021;-0.7922898;49.122643;-9884.6875;-9835.564;-4467.5625;0.0;0.0;1838.2656
3190.2;0.02392794;-0.79193586;49.11194;-9884.51;-9835.397;-4465.5894;0.0;0.0;1838.2656
3190.205;0.023925195;-0.7914803;49.1065;-9884.135;-9835.028;-4463.0664;0.0;0.0;1838.2656
3190.21;0.023923662;-0.79109585;49.10607;-9883.802;-9834.695;-4460.945;0.0;0.0;1838.2656
3190.215;0.02392333;-0.79092157;49.11006;-9883.924;-9834.813;-4459.9917;0.0;0.0;1838.2656
3190.22;0.023923917;-0.7905977;49.11726;-9883.838;-9834.721;-4458.22;0.0;0.0;1838.2656
3190.225;0.023925118;-0.79033154;49.128044;-9883.857;-9834.7295;-4456.774;0.0;0.0;1838.2656
3190.23;0.02392736;-0.7902002;49.14208;-9884.041;-9834.899;-4456.0776;0.0;0.0;1838.2656
3190.235;0.02393009;-0.7901282;49.15799;-9884.283;-9835.125;-4455.7124;0.0;0.0;1838.2656
3190.24;0.023933152;-0.7899123;49.174927;-9884.271;-9835.097;-4454.5557;0.0;0.0;1838.2656
3190.245;0.02393631;-0.7896973;49.191055;-9884.283;-9835.092;-4453.4023;0.0;0.0;1838.2656
3190.25;0.02393889;-0.789514;49.20598;-9884.236;-9835.03;-4452.4214;0.0;0.0;1838.2656
3190.255;0.023941414;-0.7893751;49.219284;-9884.404;-9835.185;-4451.682;0.0;0.0;1838.2656
3190.26;0.023943141;-0.7891906;49.23021;-9884.409;-9835.179;-4450.686;0.0;0.0;1838.2656
3190.265;0.02394449;-0.78900295;49.238457;-9884.421;-9835.183;-4449.668;0.0;0.0;1838.2656
3190.27;0.023944892;-0.78898096;49.243195;-9884.659;-9835.416;-4449.556;0.0;0.0;1838.2656
3190.275;0.02394453;-0.78898126;49.245308;-9885.016;-9835.7705;-4449.562;0.0;0.0;1838.2656
3190.28;0.02394368;-0.7889348;49.244724;-9885.215;-9835.97;-4449.3047;0.0;0.0;1838.2656
3190.285;0.023942012;-0.7887128;49.241364;-9885.197;-9835.956;-4448.0737;0.0;0.0;1838.2656
3190.29;0.023939865;-0.7885627;49.236725;-9885.276;-9836.04;-4447.237;0.0;0.0;1838.2656
3190.295;0.023937594;-0.78833705;49.230396;-9885.12;-9835.89;-4445.9795;0.0;0.0;1838.2656
3190.3;0.023934664;-0.7879784;49.223103;-9884.899;-9835.677;-4443.9873;0.0;0.0;1838.2656
3190.305;0.023931976;-0.7879004;49.215622;-9885.117;-9835.901;-4443.542;0.0;0.0;1838.2656
3190.31;0.023928987;-0.78779423;49.20807;-9885.293;-9836.085;-4442.9414;0.0;0.0;1838.2656
3190.315;0.023926293;-0.7876965;49.201714;-9885.485;-9836.283;-4442.3896;0.0;0.0;1838.2656
3190.32;0.023923913;-0.787518;49.196297;-9885.448;-9836.252;-4441.3945;0.0;0.0;1838.2656
3190.325;0.023921698;-0.78735876;49.19172;-9885.587;-9836.3955;-4440.5073;0.0;0.0;1838.2656
3190.33;0.023919743;-0.78716075;49.188263;-9885.528;-9836.34;-4439.408;0.0;0.0;1838.2656
3190.335;0.023918077;-0.78706336;49.186413;-9885.619;-9836.433;-4438.8677;0.0;0.0;1838.2656
3190.34;0.023916896;-0.78692997;49.18602;-9885.605;-9836.42;-4438.131;0.0;0.0;1838.2656
3190.345;0.023915952;-0.7869591;49.187;-9885.912;-9836.726;-4438.294;0.0;0.0;1838.2656
3190.35;0.023915442;-0.7869193;49.18904;-9886.003;-9836.813;-4438.078;0.0;0.0;1838.2656
3190.355;0.023915017;-0.786783;49.192772;-9885.955;-9836.763;-4437.334;0.0;0.0;1838.2656
3190.36;0.023915296;-0.7866976;49.19796;-9885.872;-9836.674;-4436.8735;0.0;0.0;1838.2656
3190.365;0.023915578;-0.7866596;49.204163;-9885.868;-9836.664;-4436.6763;0.0;0.0;1838.2656
3190.37;0.023916328;-0.7868781;49.211834;-9886.223;-9837.011;-4437.8965;0.0;0.0;1838.2656
3190.375;0.023917299;-0.7870324;49.22035;-9886.423;-9837.202;-4438.7646;0.0;0.0;1838.2656
3190.38;0.023918401;-0.7871396;49.228935;-9886.543;-9837.314;-4439.373;0.0;0.0;1838.2656
3190.385;0.02391936;-0.7874407;49.237053;-9886.922;-9837.685;-4441.05;0.0;0.0;1838.2656
3190.39;0.023920193;-0.787583;49.244717;-9886.872;-9837.627;-4441.8496;0.0;0.0;1838.2656
3190.395;0.023920847;-0.7877056;49.25;-9886.759;-9837.509;-4442.5366;0.0;0.0;1838.2656
3190.4;0.023920488;-0.78805685;49.252552;-9887.083;-9837.83;-4444.4785;0.0;0.0;1838.2656
3190.405;0.023919757;-0.7883742;49.251907;-9887.324;-9838.072;-4446.2275;0.0;0.0;1838.2656
3190.41;0.023917785;-0.7887763;49.246796;-9887.58;-9838.333;-4448.4346;0.0;0.0;1838.2656
3190.415;0.023914862;-0.7890614;49.23657;-9887.679;-9838.442;-4449.987;0.0;0.0;1838.2656
3190.42;0.02391038;-0.78944826;49.219788;-9887.955;-9838.735;-4452.0864;0.0;0.0;1838.2656
3190.425;0.02390427;-0.78972715;49.197594;-9888.033;-9838.836;-4453.58;0.0;0.0;1838.2656
3190.43;0.023897205;-0.7899372;49.170776;-9888.004;-9838.833;-4454.6846;0.0;0.0;1838.2656
3190.435;0.023888873;-0.7902824;49.139328;-9888.19;-9839.051;-4456.526;0.0;0.0;1838.2656
3190.44;0.023879616;-0.7905149;49.10395;-9888.262;-9839.158;-4457.737;0.0;0.0;1838.2656
3190.445;0.023869444;-0.7907632;49.065273;-9888.393;-9839.327;-4459.029;0.0;0.0;1838.2656
3190.45;0.023858665;-0.7908529;49.024246;-9888.304;-9839.279;-4459.442;0.0;0.0;1838.2656
3190.455;0.023847453;-0.79097813;48.98176;-9888.292;-9839.311;-4460.0474;0.0;0.0;1838.2656
3190.46;0.02383607;-0.79110676;48.939934;-9888.384;-9839.444;-4460.673;0.0;0.0;1838.2656
3190.465;0.023825275;-0.79108334;48.900177;-9888.195;-9839.295;-4460.4644;0.0;0.0;1838.2656
3190.47;0.023814972;-0.7911729;48.86381;-9888.337;-9839.473;-4460.8857;0.0;0.0;1838.2656
3190.475;0.023805948;-0.7910374;48.83165;-9888.066;-9839.234;-4460.0737;0.0;0.0;1838.2656
3190.48;0.023797736;-0.7908485;48.803696;-9887.719;-9838.915;-4458.976;0.0;0.0;1838.2656
3190.485;0.023790836;-0.79077864;48.781826;-9887.689;-9838.907;-4458.547;0.0;0.0;1838.2656
3190.49;0.023785632;-0.79036987;48.766922;-9887.01;-9838.243;-4456.263;0.0;0.0;1838.2656
3190.495;0.023782147;-0.79023755;48.75845;-9886.842;-9838.083;-4455.5166;0.0;0.0;1838.2656
3190.5;0.023780081;-0.7900043;48.756447;-9886.451;-9837.694;-4454.226;0.0;0.0;1838.2656
3190.505;0.023779748;-0.7898502;48.761982;-9886.309;-9837.547;-4453.387;0.0;0.0;1838.2656
3190.51;0.023781331;-0.7898765;48.77449;-9886.248;-9837.474;-4453.5576;0.0;0.0;1838.2656
3190.515;0.023784311;-0.7898468;48.792706;-9886.162;-9837.369;-4453.43;0.0;0.0;1838.2656
3190.52;0.02378858;-0.7897944;48.816345;-9886.027;-9837.211;-4453.1885;0.0;0.0;1838.2656
3190.525;0.023794135;-0.78979844;48.844532;-9885.927;-9837.082;-4453.267;0.0;0.0;1838.2656
3190.53;0.023800517;-0.7897947;48.876114;-9885.758;-9836.882;-4453.3096;0.0;0.0;1838.2656
3190.535;0.023807606;-0.7898114;48.909096;-9885.554;-9836.645;-4453.4673;0.0;0.0;1838.2656
3190.54;0.023814522;-0.7899515;48.941162;-9885.458;-9836.517;-4454.304;0.0;0.0;1838.2656
3190.545;0.023821054;-0.79035187;48.972046;-9885.796;-9836.824;-4456.574;0.0;0.0;1838.2656
3190.55;0.023827272;-0.79052794;48.99999;-9885.693;-9836.693;-4457.601;0.0;0.0;1838.2656
3190.555;0.023832252;-0.79088056;49.02276;-9885.886;-9836.863;-4459.5913;0.0;0.0;1838.2656
3190.56;0.023835886;-0.79129094;49.04029;-9886.126;-9837.086;-4461.889;0.0;0.0;1838.2656
3190.565;0.023838246;-0.7916666;49.05084;-9886.219;-9837.168;-4463.9824;0.0;0.0;1838.2656
3190.57;0.023838418;-0.79192394;49.052937;-9886.169;-9837.116;-4465.406;0.0;0.0;1838.2656
3190.575;0.023836697;-0.7922755;49.047302;-9886.242;-9837.195;-4467.333;0.0;0.0;1838.2656
3190.58;0.023833124;-0.79253876;49.034668;-9886.17;-9837.135;-4468.76;0.0;0.0;1838.2656
3190.585;0.023828072;-0.79282004;49.01564;-9886.095;-9837.079;-4470.273;0.0;0.0;1838.2656
3190.59;0.02382144;-0.79296196;48.991123;-9885.91;-9836.919;-4471.0063;0.0;0.0;1838.2656
3190.595;0.023813834;-0.7931212;48.963005;-9885.766;-9836.803;-4471.8286;0.0;0.0;1838.2656
3190.6;0.023805546;-0.79326636;48.932037;-9885.628;-9836.696;-4472.567;0.0;0.0;1838.2656
3190.605;0.023796666;-0.793555;48.900124;-9885.73;-9836.83;-4474.095;0.0;0.0;1838.2656
3190.61;0.023788018;-0.7937823;48.86901;-9885.932;-9837.0625;-4475.286;0.0;0.0;1838.2656
3190.615;0.023779664;-0.7940953;48.84023;-9886.214;-9837.374;-4476.9546;0.0;0.0;1838.2656
3190.62;0.023772262;-0.7941843;48.814796;-9886.152;-9837.338;-4477.395;0.0;0.0;1838.2656
3190.625;0.023765603;-0.7942326;48.793564;-9886.078;-9837.284;-4477.6187;0.0;0.0;1838.2656
3190.63;0.023760304;-0.7941835;48.777973;-9885.8125;-9837.034;-4477.317;0.0;0.0;1838.2656
3190.635;0.023756422;-0.7941476;48.767776;-9885.598;-9836.83;-4477.098;0.0;0.0;1838.2656
3190.64;0.023753768;-0.7941585;48.76279;-9885.488;-9836.726;-4477.1484;0.0;0.0;1838.2656
3190.645;0.023752406;-0.79424626;48.762894;-9885.529;-9836.767;-4477.6323;0.0;0.0;1838.2656
3190.65;0.023752214;-0.79443425;48.768105;-9885.729;-9836.96;-4478.6797;0.0;0.0;1838.2656
3190.655;0.023753278;-0.7946308;48.77735;-9885.88;-9837.103;-4479.782;0.0;0.0;1838.2656
3190.66;0.02375498;-0.7946718;48.79007;-9885.866;-9837.076;-4480.0337;0.0;0.0;1838.2656
3190.665;0.023757672;-0.794771;48.805164;-9885.812;-9837.007;-4480.611;0.0;0.0;1838.2656
3190.67;0.02376043;-0.7949993;48.820473;-9886.029;-9837.209;-4481.9004;0.0;0.0;1838.2656
3190.675;0.023763157;-0.7953478;48.83604;-9886.374;-9837.538;-4483.8535;0.0;0.0;1838.2656
3190.68;0.023765976;-0.79553366;48.850266;-9886.422;-9837.571;-4484.907;0.0;0.0;1838.2656
3190.685;0.023767969;-0.795712;48.862602;-9886.523;-9837.661;-4485.9155;0.0;0.0;1838.2656
3190.69;0.02376982;-0.7959501;48.87361;-9886.623;-9837.749;-4487.2505;0.0;0.0;1838.2656
3190.695;0.023771096;-0.7961942;48.88086;-9886.689;-9837.809;-4488.6113;0.0;0.0;1838.2656
3190.7;0.023771096;-0.7963112;48.883675;-9886.547;-9837.663;-4489.262;0.0;0.0;1838.2656
3190.705;0.023770198;-0.79655004;48.88344;-9886.584;-9837.7;-4490.5786;0.0;0.0;1838.2656
3190.71;0.023768723;-0.7968806;48.88016;-9886.871;-9837.991;-4492.395;0.0;0.0;1838.2656
3190.715;0.023766365;-0.79700685;48.87355;-9886.838;-9837.964;-4493.0776;0.0;0.0;1838.2656
3190.72;0.02376327;-0.797219;48.863625;-9886.963;-9838.1;-4494.228;0.0;0.0;1838.2656
3190.725;0.023759369;-0.79743034;48.850353;-9887.078;-9838.228;-4495.367;0.0;0.0;1838.2656
3190.73;0.023754654;-0.7976174;48.83484;-9887.258;-9838.423;-4496.367;0.0;0.0;1838.2656
3190.735;0.023749728;-0.7976639;48.818077;-9887.126;-9838.308;-4496.5903;0.0;0.0;1838.2656
3190.74;0.023744438;-0.7977238;48.80061;-9887.148;-9838.348;-4496.886;0.0;0.0;1838.2656
3190.745;0.023739249;-0.7978387;48.78331;-9887.302;-9838.519;-4497.485;0.0;0.0;1838.2656
3190.75;0.023734083;-0.7978324;48.76673;-9887.248;-9838.481;-4497.4175;0.0;0.0;1838.2656
3190.755;0.0237293;-0.79781;48.752026;-9887.277;-9838.525;-4497.264;0.0;0.0;1838.2656
3190.76;0.023725055;-0.79775155;48.73917;-9887.293;-9838.554;-4496.916;0.0;0.0;1838.2656
3190.765;0.02372123;-0.79768294;48.729183;-9887.249;-9838.52;-4496.5176;0.0;0.0;1838.2656
3190.77;0.023718392;-0.7976416;48.72245;-9887.301;-9838.578;-4496.276;0.0;0.0;1838.2656
3190.775;0.023716144;-0.7975176;48.718353;-9887.352;-9838.633;-4495.584;0.0;0.0;1838.2656
3190.78;0.023714613;-0.7973734;48.718025;-9887.289;-9838.571;-4494.7886;0.0;0.0;1838.2656
3190.785;0.023714153;-0.79710317;48.720222;-9887.089;-9838.368;-4493.3022;0.0;0.0;1838.2656
3190.79;0.023713836;-0.7970396;48.72394;-9887.198;-9838.475;-4492.9595;0.0;0.0;1838.2656
3190.795;0.023714107;-0.7968156;48.729713;-9887.111;-9838.382;-4491.7354;0.0;0.0;1838.2656
3190.8;0.023714717;-0.7963974;48.737198;-9886.642;-9837.904;-4489.4443;0.0;0.0;1838.2656
3190.805;0.02371579;-0.7961601;48.745403;-9886.558;-9837.8125;-4488.152;0.0;0.0;1838.2656
3190.81;0.023716716;-0.7961219;48.754284;-9886.771;-9838.018;-4487.959;0.0;0.0;1838.2656
3190.815;0.02371807;-0.7958095;48.763332;-9886.578;-9837.814;-4486.2544;0.0;0.0;1838.2656
3190.82;0.023719039;-0.7957493;48.771477;-9886.768;-9837.996;-4485.9385;0.0;0.0;1838.2656
3190.825;0.023719905;-0.7956042;48.77867;-9886.936;-9838.157;-4485.1533;0.0;0.0;1838.2656
3190.83;0.023720374;-0.79530174;48.783955;-9886.706;-9837.922;-4483.4956;0.0;0.0;1838.2656
3190.835;0.02372029;-0.79518974;48.786396;-9886.799;-9838.013;-4482.883;0.0;0.0;1838.2656
3190.84;0.023719339;-0.7949898;48.785904;-9886.83;-9838.044;-4481.7793;0.0;0.0;1838.2656
3190.845;0.023717847;-0.7947986;48.78307;-9886.875;-9838.092;-4480.7188;0.0;0.0;1838.2656
3190.85;0.023715736;-0.7946549;48.777634;-9886.964;-9838.187;-4479.9155;0.0;0.0;1838.2656
3190.855;0.023712989;-0.79432815;48.7703;-9886.818;-9838.048;-4478.099;0.0;0.0;1838.2656
3190.86;0.023710005;-0.79410064;48.761353;-9886.756;-9837.994;-4476.8267;0.0;0.0;1838.2656
3190.865;0.023706494;-0.79380816;48.75032;-9886.739;-9837.989;-4475.1914;0.0;0.0;1838.2656
3190.87;0.023702541;-0.7937431;48.73776;-9886.986;-9838.249;-4474.8076;0.0;0.0;1838.2656
3190.875;0.023698317;-0.79356784;48.72477;-9887.0625;-9838.338;-4473.815;0.0;0.0;1838.2656
3190.88;0.023694212;-0.7932547;48.712612;-9887.0625;-9838.35;-4472.0635;0.0;0.0;1838.2656
3190.885;0.02369045;-0.7929864;48.701103;-9887.021;-9838.32;-4470.561;0.0;0.0;1838.2656
3190.89;0.023686653;-0.79280025;48.689877;-9887.098;-9838.408;-4469.5117;0.0;0.0;1838.2656
3190.895;0.02368307;-0.79245365;48.680527;-9886.89;-9838.209;-4467.582;0.0;0.0;1838.2656
3190.9;0.023680203;-0.7924421;48.672844;-9887.336;-9838.663;-4467.503;0.0;0.0;1838.2656
3190.905;0.023677401;-0.7921907;48.66607;-9887.301;-9838.635;-4466.103;0.0;0.0;1838.2656
3190.91;0.023674974;-0.7919552;48.660107;-9887.262;-9838.602;-4464.792;0.0;0.0;1838.2656
3190.915;0.02367255;-0.79180104;48.654648;-9887.314;-9838.66;-4463.931;0.0;0.0;1838.2656
3190.92;0.023670342;-0.7916887;48.649548;-9887.473;-9838.823;-4463.3013;0.0;0.0;1838.2656
3190.925;0.023668071;-0.79155;48.64438;-9887.543;-9838.898;-4462.5264;0.0;0.0;1838.2656
3190.93;0.023665804;-0.7913607;48.63912;-9887.473;-9838.834;-4461.4717;0.0;0.0;1838.2656
3190.935;0.023663476;-0.79126096;48.632446;-9887.545;-9838.912;-4460.908;0.0;0.0;1838.2656
3190.94;0.023660513;-0.7910697;48.624447;-9887.465;-9838.841;-4459.8374;0.0;0.0;1838.2656
3190.945;0.023657523;-0.7909746;48.61593;-9887.428;-9838.812;-4459.2964;0.0;0.0;1838.2656
3190.95;0.023654336;-0.79075074;48.60659;-9887.279;-9838.673;-4458.043;0.0;0.0;1838.2656
3190.955;0.023650939;-0.7905673;48.59681;-9887.131;-9838.534;-4457.0117;0.0;0.0;1838.2656
3190.96;0.02364757;-0.790518;48.586067;-9887.197;-9838.611;-4456.7183;0.0;0.0;1838.2656
3190.965;0.023643743;-0.7905035;48.574566;-9887.318;-9838.744;-4456.615;0.0;0.0;1838.2656
3190.97;0.023640025;-0.7903961;48.563858;-9887.281;-9838.718;-4456.002;0.0;0.0;1838.2656
3190.975;0.023636628;-0.79037327;48.55439;-9887.3125;-9838.758;-4455.857;0.0;0.0;1838.2656
3190.98;0.023633558;-0.79035354;48.546406;-9887.334;-9838.787;-4455.732;0.0;0.0;1838.2656
3190.985;0.023630926;-0.79031336;48.541336;-9887.278;-9838.737;-4455.5005;0.0;0.0;1838.2656
3190.99;0.023629284;-0.79028124;48.538498;-9887.283;-9838.745;-4455.3174;0.0;0.0;1838.2656
3190.995;0.023627752;-0.79021335;48.537727;-9887.213;-9838.675;-4454.9414;0.0;0.0;1838.2656
3191.0;0.023627082;-0.7901535;48.539856;-9887.084;-9838.544;-4454.6157;0.0;0.0;1838.2656
3191.005;0.02362699;-0.7902392;48.545013;-9887.102;-9838.557;-4455.099;0.0;0.0;1838.2656
3191.01;0.023627749;-0.7904004;48.552498;-9887.272;-9838.72;-4456.0024;0.0;0.0;1838.2656
3191.015;0.023628745;-0.79053175;48.56067;-9887.392;-9838.831;-4456.7437;0.0;0.0;1838.2656
3191.02;0.023629807;-0.79068387;48.569687;-9887.525;-9838.956;-4457.6;0.0;0.0;1838.2656
3191.025;0.02363116;-0.79083985;48.579815;-9887.481;-9838.901;-4458.4805;0.0;0.0;1838.2656
3191.03;0.023632716;-0.7910302;48.590294;-9887.619;-9839.029;-4459.5513;0.0;0.0;1838.2656
3191.035;0.023634173;-0.79114145;48.6003;-9887.516;-9838.915;-4460.185;0.0;0.0;1838.2656
3191.04;0.023635456;-0.791496;48.607986;-9887.895;-9839.286;-4462.156;0.0;0.0;1838.2656
3191.045;0.023635749;-0.7917175;48.61286;-9887.898;-9839.285;-4463.387;0.0;0.0;1838.2656
3191.05;0.023635624;-0.7918383;48.615414;-9887.775;-9839.16;-4464.058;0.0;0.0;1838.2656
3191.055;0.023634728;-0.7921116;48.615547;-9887.921;-9839.306;-4465.5654;0.0;0.0;1838.2656
3191.06;0.023633396;-0.79235524;48.612747;-9888.041;-9839.429;-4466.904;0.0;0.0;1838.2656
3191.065;0.023631064;-0.79259306;48.605595;-9888.083;-9839.478;-4468.201;0.0;0.0;1838.2656
3191.07;0.023627616;-0.7928423;48.594593;-9888.185;-9839.59;-4469.5537;0.0;0.0;1838.2656
3191.075;0.023623405;-0.7930406;48.580418;-9888.258;-9839.678;-4470.6187;0.0;0.0;1838.2656
3191.08;0.023618426;-0.7931375;48.562523;-9888.23;-9839.668;-4471.117;0.0;0.0;1838.2656
3191.085;0.023612421;-0.79324335;48.540947;-9888.209;-9839.668;-4471.6577;0.0;0.0;1838.2656
3191.09;0.023605695;-0.79336935;48.51657;-9888.201;-9839.685;-4472.3037;0.0;0.0;1838.2656
3191.095;0.023598323;-0.79335976;48.48899;-9888.165;-9839.676;-4472.196;0.0;0.0;1838.2656
3191.1;0.023590118;-0.7934138;48.45864;-9888.178;-9839.719;-4472.433;0.0;0.0;1838.2656
3191.105;0.023581414;-0.7932687;48.426098;-9888.048;-9839.622;-4471.568;0.0;0.0;1838.2656
3191.11;0.023572227;-0.7932493;48.392258;-9888.117;-9839.725;-4471.3936;0.0;0.0;1838.2656
