time;temperature;pressure;kinetic_energy;potential_energy;total_energy;virial;msd;diffusion;volume
1055.005;0.8777642;0.4392291;1800.795;-6785.073;-4984.2783;-1179.3308;0.0;0.0;1838.2656
1055.01;0.8773326;0.45076126;1799.179;-6777.4375;-4978.259;-1112.5011;0.0;0.0;1838.2656
1055.015;0.8770161;0.46421757;1797.9785;-6768.369;-4970.3906;-1035.8914;0.0;0.0;1838.2656
1055.02;0.87678814;0.47897026;1797.1167;-6758.622;-4961.5054;-952.8097;0.0;0.0;1838.2656
1055.025;0.87663746;0.49466377;1796.5502;-6748.1094;-4951.559;-865.1301;0.0;0.0;1838.2656
1055.03;0.8765548;0.51054186;1796.2332;-6737.6074;-4941.374;-776.93164;0.0;0.0;1838.2656
1055.035;0.8765282;0.526721;1796.1458;-6726.716;-4930.5703;-687.53204;0.0;0.0;1838.2656
1055.04;0.8765664;0.5423117;1796.4132;-6716.137;-4919.724;-602.0875;0.0;0.0;1838.2656
1055.045;0.87672544;0.55628127;1797.2961;-6707.1113;-4909.8154;-526.8141;0.0;0.0;1838.2656
1055.05;0.87707174;0.5683137;1799.0134;-6699.325;-4900.3115;-463.8922;0.0;0.0;1838.2656
1055.055;0.87762886;0.577208;1801.5195;-6694.019;-4892.4995;-419.85413;0.0;0.0;1838.2656
1055.06;0.8783252;0.582307;1804.3787;-6691.671;-4887.292;-397.45276;0.0;0.0;1838.2656
1055.065;0.8790099;0.5837006;1806.94;-6691.967;-4885.027;-394.88974;0.0;0.0;1838.2656
1055.07;0.87952507;0.58247346;1808.6791;-6693.8184;-4885.139;-405.13538;0.0;0.0;1838.2656
1055.075;0.87979674;0.5797983;1809.4183;-6696.4697;-4887.0513;-421.36697;0.0;0.0;1838.2656
1055.08;0.8798318;0.5769297;1809.2825;-6698.861;-4889.578;-436.9148;0.0;0.0;1838.2656
1055.085;0.8796954;0.5746628;1808.5662;-6700.4873;-4891.921;-447.98373;0.0;0.0;1838.2656
1055.09;0.8794702;0.57361156;1807.614;-6701.0103;-4893.3965;-451.87692;0.0;0.0;1838.2656
1055.095;0.8792397;0.5735774;1806.7346;-6700.924;-4894.1895;-450.3064;0.0;0.0;1838.2656
1055.1;0.87906474;0.57435805;1806.1592;-6700.3975;-4894.2383;-444.8504;0.0;0.0;1838.2656
1055.105;0.8789903;0.5757063;1806.0249;-6699.5103;-4893.4854;-437.1465;0.0;0.0;1838.2656
1055.11;0.8790329;0.57678545;1806.3933;-6699.2627;-4892.869;-431.93216;0.0;0.0;1838.2656
1055.115;0.8791977;0.5772218;1807.2122;-6699.5757;-4892.3633;-431.16342;0.0;0.0;1838.2656
1055.12;0.87944335;0.57660645;1808.2476;-6700.857;-4892.6094;-436.6277;0.0;0.0;1838.2656
1055.125;0.879689;0.5749419;1809.1268;-6702.824;-4893.6973;-447.5659;0.0;0.0;1838.2656
1055.13;0.8798336;0.57252544;1809.4679;-6705.3965;-4895.9287;-461.57437;0.0;0.0;1838.2656
1055.135;0.87980735;0.57026786;1809.1143;-6707.598;-4898.484;-473.3171;0.0;0.0;1838.2656
1055.14;0.8796225;0.5687718;1808.2244;-6708.838;-4900.6133;-479.78793;0.0;0.0;1838.2656
1055.145;0.87935704;0.56836253;1807.1838;-6709.271;-4902.087;-479.96362;0.0;0.0;1838.2656
1055.15;0.87912524;0.5687166;1806.4362;-6708.796;-4902.36;-476.51575;0.0;0.0;1838.2656
1055.155;0.87901986;0.5690832;1806.3071;-6708.295;-4901.988;-474.23587;0.0;0.0;1838.2656
1055.16;0.8790929;0.56885237;1806.8667;-6708.171;-4901.304;-476.62814;0.0;0.0;1838.2656
1055.165;0.8793112;0.56693816;1807.9199;-6709.242;-4901.3223;-489.2909;0.0;0.0;1838.2656
1055.17;0.8796027;0.5632571;1809.1276;-6711.385;-4902.2573;-512.0068;0.0;0.0;1838.2656
1055.175;0.8798747;0.55770797;1810.1409;-6714.58;-4904.4395;-544.6356;0.0;0.0;1838.2656
1055.18;0.880059;0.5505894;1810.7773;-6718.6777;-4907.9004;-585.1662;0.0;0.0;1838.2656
1055.185;0.8801477;0.5425199;1811.071;-6723.158;-4912.087;-630.25476;0.0;0.0;1838.2656
1055.19;0.88017416;0.53397;1811.2039;-6727.5337;-4916.33;-677.67163;0.0;0.0;1838.2656
1055.195;0.88019645;0.52473944;1811.4084;-6732.2393;-4920.831;-728.9854;0.0;0.0;1838.2656
1055.2;0.8802638;0.5148701;1811.8035;-6737.258;-4925.454;-784.20306;0.0;0.0;1838.2656
1055.205;0.88037634;0.50401825;1812.328;-6743.17;-4930.842;-845.0978;0.0;0.0;1838.2656
1055.21;0.8804954;0.49274898;1812.7733;-6749.1494;-4936.376;-908.13605;0.0;0.0;1838.2656
1055.215;0.88055724;0.4815189;1812.8916;-6754.849;-4941.9575;-970.30426;0.0;0.0;1838.2656
1055.22;0.8805127;0.47027904;1812.565;-6760.8145;-4948.2495;-1031.6366;0.0;0.0;1838.2656
1055.225;0.8803634;0.4600077;1811.8562;-6766.2827;-4954.427;-1086.8634;0.0;0.0;1838.2656
1055.23;0.8801444;0.45127553;1810.9172;-6770.6187;-4959.701;-1133.1417;0.0;0.0;1838.2656
1055.235;0.8798923;0.44441122;1809.8661;-6773.6274;-4963.761;-1168.8945;0.0;0.0;1838.2656
1055.24;0.87962574;0.4393642;1808.7444;-6775.5806;-4966.836;-1194.4845;0.0;0.0;1838.2656
1055.245;0.8793448;0.43622413;1807.5635;-6776.5254;-4968.962;-1209.4395;0.0;0.0;1838.2656
1055.25;0.8790552;0.43539083;1806.3197;-6775.916;-4969.596;-1211.5475;0.0;0.0;1838.2656
1055.255;0.8787449;0.4367052;1804.946;-6774.1475;-4969.201;-1201.5515;0.0;0.0;1838.2656
1055.26;0.87838864;0.44049492;1803.2971;-6770.9434;-4967.6465;-1177.3541;0.0;0.0;1838.2656
1055.265;0.8779451;0.44712466;1801.3076;-6765.854;-4964.5464;-1136.8136;0.0;0.0;1838.2656
1055.27;0.8774371;0.45681858;1799.1714;-6758.4526;-4959.2812;-1079.081;0.0;0.0;1838.2656
1055.275;0.8769411;0.469484;1797.2202;-6749.08;-4951.86;-1005.3315;0.0;0.0;1838.2656
1055.28;0.87653863;0.48436835;1795.7274;-6738.3965;-4942.669;-920.2618;0.0;0.0;1838.2656
1055.285;0.87627614;0.5007827;1794.8872;-6726.6914;-4931.804;-828.0596;0.0;0.0;1838.2656
1055.29;0.8762008;0.51767135;1794.8594;-6714.8403;-4919.981;-734.8665;0.0;0.0;1838.2656
1055.295;0.87633705;0.53370064;1795.7;-6704.0107;-4908.3105;-648.1491;0.0;0.0;1838.2656
1055.3;0.8766745;0.54788554;1797.2261;-6694.7666;-4897.5405;-572.9748;0.0;0.0;1838.2656
1055.305;0.8771222;0.5595973;1799.064;-6687.4956;-4888.4316;-512.06244;0.0;0.0;1838.2656
1055.31;0.877591;0.56884104;1800.9125;-6681.7915;-4880.879;-464.7823;0.0;0.0;1838.2656
1055.315;0.87803537;0.57534784;1802.7032;-6677.841;-4875.1377;-432.47986;0.0;0.0;1838.2656
1055.32;0.8784792;0.5790614;1804.6276;-6675.9307;-4871.303;-415.84912;0.0;0.0;1838.2656
1055.325;0.8789931;0.5796484;1806.9121;-6676.0693;-4869.157;-417.1812;0.0;0.0;1838.2656
1055.33;0.879603;0.5766505;1809.5458;-6678.827;-4869.2812;-438.98123;0.0;0.0;1838.2656
1055.335;0.88026196;0.56995124;1812.246;-6684.4204;-4872.1743;-481.32663;0.0;0.0;1838.2656
1055.34;0.88087547;0.5595335;1814.6202;-6692.7324;-4878.1123;-543.5271;0.0;0.0;1838.2656
1055.345;0.88135135;0.5466966;1816.3745;-6702.4995;-4886.125;-617.8282;0.0;0.0;1838.2656
1055.35;0.8816527;0.53231865;1817.4181;-6713.044;-4895.626;-699.2071;0.0;0.0;1838.2656
1055.355;0.88178116;0.51687884;1817.7766;-6724.4346;-4906.658;-785.07135;0.0;0.0;1838.2656
1055.36;0.88174933;0.50204295;1817.467;-6734.926;-4917.459;-866.26917;0.0;0.0;1838.2656
1055.365;0.8815555;0.48824266;1816.495;-6744.6367;-4928.1416;-940.43085;0.0;0.0;1838.2656
1055.37;0.88121134;0.47626856;1814.9581;-6752.9175;-4937.9595;-1003.3919;0.0;0.0;1838.2656
1055.375;0.88075894;0.46674562;1813.0557;-6759.5786;-4946.523;-1052.1041;0.0;0.0;1838.2656
1055.38;0.88025683;0.460289;1811.033;-6763.841;-4952.8076;-1083.6655;0.0;0.0;1838.2656
1055.385;0.87976354;0.4566559;1809.0886;-6766.3193;-4957.2305;-1099.8127;0.0;0.0;1838.2656
1055.39;0.87931085;0.45577538;1807.3042;-6766.964;-4959.6597;-1101.0997;0.0;0.0;1838.2656
1055.395;0.8788995;0.4576705;1805.6157;-6765.6836;-4960.068;-1087.2715;0.0;0.0;1838.2656
1055.4;0.8784938;0.46204615;1803.8896;-6763.0;-4959.1104;-1059.6886;0.0;0.0;1838.2656
1055.405;0.8780647;0.4690345;1802.0227;-6758.62;-4956.5977;-1017.41547;0.0;0.0;1838.2656
1055.41;0.87759715;0.4789582;1800.019;-6752.1016;-4952.0825;-958.681;0.0;0.0;1838.2656
1055.415;0.8771188;0.49185848;1798.1086;-6743.4497;-4945.341;-883.7177;0.0;0.0;1838.2656
1055.42;0.8767199;0.507089;1796.6671;-6733.2217;-4936.5547;-796.84125;0.0;0.0;1838.2656
1055.425;0.87648773;0.5234916;1795.9803;-6722.4297;-4926.449;-705.0108;0.0;0.0;1838.2656
1055.43;0.87645656;0.5403046;1796.021;-6711.587;-4915.566;-612.3717;0.0;0.0;1838.2656
1055.435;0.8765637;0.5566696;1796.468;-6701.244;-4904.7764;-523.01624;0.0;0.0;1838.2656
1055.44;0.8767122;0.57227397;1796.9728;-6691.3916;-4894.419;-437.97098;0.0;0.0;1838.2656
1055.445;0.87684256;0.58682567;1797.4186;-6682.4136;-4884.995;-358.61282;0.0;0.0;1838.2656
1055.45;0.8769756;0.60065466;1798.0258;-6673.511;-4875.4854;-283.5632;0.0;0.0;1838.2656
1055.455;0.8772071;0.6128447;1799.2185;-6665.7666;-4866.548;-218.72298;0.0;0.0;1838.2656
1055.46;0.8776417;0.62224007;1801.354;-6660.2676;-4858.9136;-171.1803;0.0;0.0;1838.2656
1055.465;0.8783264;0.6277258;1804.4553;-6657.9546;-4853.499;-147.13055;0.0;0.0;1838.2656
1055.47;0.87919533;0.6282531;1808.046;-6659.606;-4851.56;-151.40388;0.0;0.0;1838.2656
1055.475;0.88005793;0.62446684;1811.2961;-6664.3223;-4853.0264;-178.7844;0.0;0.0;1838.2656
1055.48;0.88070184;0.6170924;1813.4246;-6671.621;-4858.1963;-223.71;0.0;0.0;1838.2656
1055.485;0.8809836;0.6084764;1814.0479;-6679.005;-4864.957;-272.47192;0.0;0.0;1838.2656
1055.49;0.8808947;0.599928;1813.3093;-6686.0713;-4872.7617;-318.1376;0.0;0.0;1838.2656
1055.495;0.8805369;0.5930429;1811.6667;-6691.4307;-4879.7637;-352.82245;0.0;0.0;1838.2656
1055.5;0.88003784;0.58849853;1809.6002;-6694.658;-4885.058;-373.75043;0.0;0.0;1838.2656
1055.505;0.8795009;0.5868157;1807.5061;-6695.3633;-4887.8574;-378.84274;0.0;0.0;1838.2656
1055.51;0.87901247;0.58736265;1805.682;-6694.4043;-4888.722;-372.1783;0.0;0.0;1838.2656
1055.515;0.8786219;0.5898922;1804.2842;-6691.775;-4887.4907;-355.43268;0.0;0.0;1838.2656
1055.52;0.8783456;0.5934628;1803.3026;-6688.4575;-4885.155;-333.7784;0.0;0.0;1838.2656
1055.525;0.87815624;0.5978906;1802.6316;-6684.468;-4881.836;-308.018;0.0;0.0;1838.2656
1055.53;0.87803453;0.60241586;1802.2471;-6680.6284;-4878.3813;-282.2929;0.0;0.0;1838.2656
1055.535;0.8779962;0.6068047;1802.293;-6676.7515;-4874.4585;-258.1812;0.0;0.0;1838.2656
1055.54;0.87809885;0.6104444;1802.989;-6673.3525;-4870.3633;-239.5009;0.0;0.0;1838.2656
1055.545;0.87838393;0.6121749;1804.4487;-6671.6504;-4867.2017;-232.87697;0.0;0.0;1838.2656
1055.55;0.87884367;0.611862;1806.4717;-6671.327;-4864.8555;-238.64873;0.0;0.0;1838.2656
1055.555;0.879369;0.6086452;1808.5403;-6673.433;-4864.8926;-260.5259;0.0;0.0;1838.2656
1055.56;0.8798155;0.6033589;1810.1224;-6676.994;-4866.8716;-292.8428;0.0;0.0;1838.2656
1055.565;0.8800855;0.59650284;1810.9574;-6681.794;-4870.8364;-332.3227;0.0;0.0;1838.2656
1055.57;0.8801673;0.5893247;1811.063;-6686.673;-4875.61;-372.11984;0.0;0.0;1838.2656
1055.575;0.88009006;0.58289456;1810.5598;-6690.874;-4880.3145;-406.5746;0.0;0.0;1838.2656
1055.58;0.879887;0.5778719;1809.581;-6693.816;-4884.235;-432.316;0.0;0.0;1838.2656
1055.585;0.8795908;0.57445467;1808.2786;-6695.745;-4887.467;-448.5564;0.0;0.0;1838.2656
1055.59;0.87924707;0.5731563;1806.8472;-6696.0244;-4889.1772;-452.85388;0.0;0.0;1838.2656
1055.595;0.8789073;0.5737174;1805.5513;-6695.0596;-4889.5083;-447.16757;0.0;0.0;1838.2656
1055.6;0.8786479;0.57580835;1804.6753;-6693.153;-4888.4775;-433.88464;0.0;0.0;1838.2656
1055.605;0.8785252;0.57854646;1804.4021;-6691.136;-4886.7344;-418.2381;0.0;0.0;1838.2656
1055.61;0.8785598;0.58124936;1804.7571;-6689.234;-4884.4766;-404.0421;0.0;0.0;1838.2656
1055.615;0.87873113;0.58294255;1805.5865;-6688.581;-4882.9946;-396.3635;0.0;0.0;1838.2656
1055.62;0.8789772;0.5835058;1806.6338;-6688.627;-4881.993;-395.35153;0.0;0.0;1838.2656
1055.625;0.8792369;0.5825724;1807.6926;-6690.1553;-4882.463;-402.61688;0.0;0.0;1838.2656
1055.63;0.8794804;0.5800735;1808.7056;-6692.8213;-4884.1157;-418.42365;0.0;0.0;1838.2656
1055.635;0.8797115;0.57641524;1809.6558;-6696.121;-4886.4653;-440.49863;0.0;0.0;1838.2656
1055.64;0.8799164;0.5716349;1810.462;-6700.1753;-4889.7134;-468.4737;0.0;0.0;1838.2656
1055.645;0.88006467;0.5660898;1810.9446;-6704.6025;-4893.658;-500.01877;0.0;0.0;1838.2656
1055.65;0.88009995;0.56034565;1810.8887;-6709.1626;-4898.274;-531.5849;0.0;0.0;1838.2656
1055.655;0.8799802;0.5549978;1810.1284;-6713.2754;-4903.147;-559.5566;0.0;0.0;1838.2656
1055.66;0.8796728;0.55163383;1808.5964;-6715.409;-4906.8125;-575.04425;0.0;0.0;1838.2656
1055.665;0.8791902;0.55063397;1806.4059;-6715.557;-4909.1514;-576.1773;0.0;0.0;1838.2656
1055.67;0.8785866;0.5526715;1803.8793;-6713.292;-4909.4126;-559.88763;0.0;0.0;1838.2656
1055.675;0.87797385;0.55825096;1801.5244;-6707.7603;-4906.236;-524.4082;0.0;0.0;1838.2656
1055.68;0.8774869;0.5658214;1799.8528;-6701.0527;-4901.2;-479.31546;0.0;0.0;1838.2656
1055.685;0.87722605;0.57450145;1799.1536;-6694.0264;-4894.873;-430.04834;0.0;0.0;1838.2656
1055.69;0.87721056;0.58318436;1799.369;-6687.1724;-4887.803;-382.5948;0.0;0.0;1838.2656
1055.695;0.87737507;0.59108967;1800.1555;-6681.005;-4880.8496;-340.57175;0.0;0.0;1838.2656
1055.7;0.8776149;0.59791684;1801.1411;-6675.537;-4874.396;-304.8923;0.0;0.0;1838.2656
1055.705;0.8778642;0.60300034;1802.1334;-6671.6494;-4869.516;-278.84232;0.0;0.0;1838.2656
1055.71;0.8781047;0.606961;1803.1198;-6668.4766;-4865.357;-258.97278;0.0;0.0;1838.2656
1055.715;0.87835485;0.60932;1804.1935;-6666.484;-4862.2905;-248.11101;0.0;0.0;1838.2656
1055.72;0.87863904;0.61012393;1805.4294;-6665.796;-4860.366;-246.14919;0.0;0.0;1838.2656
1055.725;0.87896305;0.60926163;1806.7847;-6666.4077;-4859.623;-253.61522;0.0;0.0;1838.2656
1055.73;0.8792879;0.60720474;1808.0195;-6667.623;-4859.6035;-267.42813;0.0;0.0;1838.2656
1055.735;0.879531;0.60390764;1808.8167;-6669.993;-4861.177;-287.20544;0.0;0.0;1838.2656
1055.74;0.879629;0.5999955;1809.0359;-6672.978;-4863.9424;-309.21866;0.0;0.0;1838.2656
1055.745;0.8795928;0.59642047;1808.8057;-6675.6436;-4866.838;-328.47366;0.0;0.0;1838.2656
1055.75;0.8794846;0.59359664;1808.3958;-6677.666;-4869.2705;-343.22678;0.0;0.0;1838.2656
1055.755;0.87937295;0.591689;1808.0361;-6679.1963;-4871.16;-353.0277;0.0;0.0;1838.2656
1055.76;0.8792937;0.5904963;1807.7917;-6680.3975;-4872.6055;-359.11624;0.0;0.0;1838.2656
1055.765;0.8792353;0.58974946;1807.5254;-6681.574;-4874.049;-362.70236;0.0;0.0;1838.2656
1055.77;0.8791385;0.5900808;1807.0017;-6682.078;-4875.076;-359.82773;0.0;0.0;1838.2656
1055.775;0.87895334;0.5915087;1806.0471;-6682.163;-4876.116;-350.0441;0.0;0.0;1838.2656
1055.78;0.8786526;0.59506816;1804.6387;-6680.3813;-4875.7427;-327.59747;0.0;0.0;1838.2656
1055.785;0.8782612;0.6010377;1802.9075;-6676.75;-4873.843;-291.2141;0.0;0.0;1838.2656
1055.79;0.87782365;0.609337;1801.0763;-6671.461;-4870.385;-241.78299;0.0;0.0;1838.2656
1055.795;0.87740564;0.6197552;1799.4296;-6664.841;-4865.411;-181.03503;0.0;0.0;1838.2656
1055.8;0.8770804;0.6317348;1798.2927;-6656.9053;-4858.6123;-112.6964;0.0;0.0;1838.2656
1055.805;0.8769294;0.6443836;1797.9806;-6648.722;-4850.7417;-42.31656;0.0;0.0;1838.2656
1055.81;0.87701815;0.65608555;1798.7224;-6641.5356;-4842.8135;20.733727;0.0;0.0;1838.2656
1055.815;0.87737465;0.665993;1800.5056;-6635.5225;-4835.0166;71.80464;0.0;0.0;1838.2656
1055.82;0.87794477;0.6727358;1803.0092;-6632.0547;-4829.0454;103.98305;0.0;0.0;1838.2656
1055.825;0.8786137;0.6757084;1805.7246;-6631.365;-4825.6406;114.94556;0.0;0.0;1838.2656
1055.83;0.8792548;0.67492396;1808.2316;-6633.4756;-4825.244;105.60544;0.0;0.0;1838.2656
1055.835;0.87980396;0.6708675;1810.3684;-6637.8438;-4827.4756;78.96107;0.0;0.0;1838.2656
1055.84;0.8802576;0.6641138;1812.0972;-6643.787;-4831.69;38.258446;0.0;0.0;1838.2656
1055.845;0.88060004;0.65526277;1813.3328;-6651.0547;-4837.7217;-13.024311;0.0;0.0;1838.2656
1055.85;0.8808046;0.64502436;1813.9387;-6659.0244;-4845.086;-70.69923;0.0;0.0;1838.2656
1055.855;0.88083553;0.63461125;1813.8157;-6666.467;-4852.6514;-127.87916;0.0;0.0;1838.2656
1055.86;0.88069105;0.62445486;1813.0332;-6673.5645;-4860.5312;-182.32469;0.0;0.0;1838.2656
1055.865;0.88041335;0.61547637;1811.801;-6679.466;-4867.665;-229.37491;0.0;0.0;1838.2656
1055.87;0.8800677;0.6083187;1810.4027;-6683.576;-4873.1733;-266.05148;0.0;0.0;1838.2656
1055.875;0.8797258;0.6025569;1809.1208;-6686.503;-4877.382;-295.26288;0.0;0.0;1838.2656
1055.88;0.8794504;0.5981451;1808.1865;-6688.503;-4880.3164;-317.72433;0.0;0.0;1838.2656
1055.885;0.8792891;0.59436625;1807.7742;-6689.9404;-4882.166;-337.73904;0.0;0.0;1838.2656
1055.89;0.87927246;0.5905549;1807.9637;-6691.8076;-4883.8438;-359.13736;0.0;0.0;1838.2656
1055.895;0.8793982;0.5863141;1808.6389;-6694.052;-4885.413;-383.8746;0.0;0.0;1838.2656
1055.9;0.8795971;0.58123887;1809.4126;-6697.199;-4887.7866;-413.4109;0.0;0.0;1838.2656
1055.905;0.8797433;0.57563573;1809.765;-6700.81;-4891.045;-445.01605;0.0;0.0;1838.2656
1055.91;0.8797169;0.57045245;1809.3171;-6703.8843;-4894.5674;-472.7049;0.0;0.0;1838.2656
1055.915;0.8794749;0.56678057;1808.051;-6705.679;-4897.628;-490.4222;0.0;0.0;1838.2656
1055.92;0.87907416;0.5652188;1806.3442;-6705.7163;-4899.372;-495.62158;0.0;0.0;1838.2656
1055.925;0.87864935;0.5656424;1804.7336;-6704.401;-4899.667;-490.0643;0.0;0.0;1838.2656
1055.93;0.8783194;0.56775177;1803.5983;-6701.8594;-4898.261;-476.16083;0.0;0.0;1838.2656
1055.935;0.8781342;0.5709144;1803.0381;-6698.583;-4895.545;-457.59937;0.0;0.0;1838.2656
1055.94;0.87807906;0.574117;1802.9021;-6695.4536;-4892.552;-439.66556;0.0;0.0;1838.2656
1055.945;0.87809116;0.5773077;1802.9733;-6692.3555;-4889.3823;-422.21176;0.0;0.0;1838.2656
1055.95;0.87813467;0.5801539;1803.1682;-6689.4824;-4886.3145;-406.90564;0.0;0.0;1838.2656
1055.955;0.878215;0.5824986;1803.6279;-6686.8135;-4883.1855;-394.8944;0.0;0.0;1838.2656
1055.96;0.87839854;0.58367956;1804.617;-6685.0483;-4880.4316;-390.3597;0.0;0.0;1838.2656
1055.965;0.87874043;0.5828273;1806.2769;-6685.2114;-4878.9346;-398.37943;0.0;0.0;1838.2656
1055.97;0.8792405;0.57943076;1808.5317;-6687.3574;-4878.8257;-421.62057;0.0;0.0;1838.2656
1055.975;0.87984496;0.57276833;1811.072;-6692.365;-4881.293;-463.44318;0.0;0.0;1838.2656
1055.98;0.8804464;0.5631519;1813.3977;-6699.8584;-4886.461;-521.12714;0.0;0.0;1838.2656
1055.985;0.88090724;0.5514117;1814.9324;-6709.0806;-4894.1484;-588.9413;0.0;0.0;1838.2656
1055.99;0.8810942;0.53889656;1815.2134;-6718.709;-4903.4956;-658.5216;0.0;0.0;1838.2656
1055.995;0.8809365;0.5277213;1814.0867;-6726.937;-4912.8506;-717.8975;0.0;0.0;1838.2656
1056.0;0.88045496;0.51915985;1811.7625;-6732.7646;-4921.002;-760.4636;0.0;0.0;1838.2656
1056.005;0.87974805;0.514607;1808.7383;-6735.2764;-4926.538;-779.5234;0.0;0.0;1838.2656
1056.01;0.87896913;0.51392215;1805.6572;-6735.008;-4929.3506;-777.13806;0.0;0.0;1838.2656
1056.015;0.87827504;0.5170836;1803.1215;-6731.7285;-4928.607;-754.632;0.0;0.0;1838.2656
1056.02;0.8777878;0.5227152;1801.4973;-6726.867;-4925.37;-720.3265;0.0;0.0;1838.2656
1056.025;0.87754345;0.52971584;1800.8208;-6721.3076;-4920.487;-680.3665;0.0;0.0;1838.2656
1056.03;0.8775067;0.5367102;1800.8708;-6716.298;-4915.427;-641.89404;0.0;0.0;1838.2656
1056.035;0.8775992;0.5433275;1801.3491;-6711.862;-4910.5127;-606.35736;0.0;0.0;1838.2656
1056.04;0.87775755;0.54915285;1802.0466;-6707.925;-4905.878;-575.62695;0.0;0.0;1838.2656
1056.045;0.8779473;0.5542636;1802.8418;-6704.6963;-4901.8545;-549.03235;0.0;0.0;1838.2656
1056.05;0.87814796;0.5582705;1803.6477;-6702.3145;-4898.667;-528.54694;0.0;0.0;1838.2656
1056.055;0.87833714;0.5612807;1804.3687;-6700.7646;-4896.396;-513.3881;0.0;0.0;1838.2656
1056.06;0.8784914;0.5637791;1804.8965;-6699.581;-4894.6846;-500.66577;0.0;0.0;1838.2656
1056.065;0.87858427;0.5659928;1805.1504;-6698.53;-4893.3794;-488.96548;0.0;0.0;1838.2656
1056.07;0.8786053;0.56811047;1805.0887;-6697.5874;-4892.4985;-477.1635;0.0;0.0;1838.2656
1056.075;0.8785478;0.57077247;1804.7222;-6696.3203;-4891.598;-461.75012;0.0;0.0;1838.2656
1056.08;0.8784248;0.5741735;1804.0892;-6694.441;-4890.3516;-441.72815;0.0;0.0;1838.2656
1056.085;0.87824225;0.5785491;1803.2378;-6691.8643;-4888.6265;-415.89487;0.0;0.0;1838.2656
1056.09;0.87801695;0.5844331;1802.23;-6688.015;-4885.785;-381.43015;0.0;0.0;1838.2656
1056.095;0.8777684;0.59179336;1801.2122;-6682.8394;-4881.627;-338.80414;0.0;0.0;1838.2656
1056.1;0.87755173;0.600176;1800.4468;-6677.074;-4876.6274;-291.04507;0.0;0.0;1838.2656
1056.105;0.87744063;0.6088573;1800.1722;-6671.3545;-4871.182;-242.6202;0.0;0.0;1838.2656
1056.11;0.87746865;0.6172941;1800.4885;-6665.8945;-4865.4062;-196.7257;0.0;0.0;1838.2656
1056.115;0.8776428;0.62479734;1801.3699;-6661.1143;-4859.744;-157.10947;0.0;0.0;1838.2656
1056.12;0.8779389;0.6308367;1802.7104;-6657.585;-4854.8745;-126.48466;0.0;0.0;1838.2656
