time;temperature;pressure;kinetic_energy;potential_energy;total_energy;virial;msd;diffusion;volume
755.005;0.9978522;0.8504351;2047.7051;-6576.004;-4528.299;594.56665;0.0;0.0;1838.2656
755.01;0.99829787;0.8562972;2049.5764;-6571.509;-4521.9326;623.1524;0.0;0.0;1838.2656
755.015;0.9987877;0.85943484;2051.4185;-6569.3257;-4517.907;636.7718;0.0;0.0;1838.2656
755.02;0.9991811;0.8607351;2052.7246;-6568.3022;-4515.5776;641.32996;0.0;0.0;1838.2656
755.025;0.9993907;0.8609459;2053.3306;-6567.7246;-4514.394;641.2806;0.0;0.0;1838.2656
755.03;0.9994441;0.8605635;2053.4412;-6567.4683;-4514.0273;638.95056;0.0;0.0;1838.2656
755.035;0.99942344;0.860172;2053.3838;-6566.829;-4513.4453;636.9062;0.0;0.0;1838.2656
755.04;0.9994063;0.8590762;2053.4663;-6567.157;-4513.691;630.6983;0.0;0.0;1838.2656
755.045;0.9994632;0.85770875;2053.942;-6567.2837;-4513.342;622.2057;0.0;0.0;1838.2656
755.05;0.99964434;0.8552002;2054.9585;-6568.2065;-4513.248;606.3384;0.0;0.0;1838.2656
755.055;0.99996084;0.851124;2056.48;-6570.38;-4513.9;580.8159;0.0;0.0;1838.2656
755.06;1.0003718;0.8444492;2058.2236;-6574.993;-4516.7695;540.5188;0.0;0.0;1838.2656
755.065;1.0007691;0.8358567;2059.7202;-6580.971;-4521.251;490.13928;0.0;0.0;1838.2656
755.07;1.0010346;0.82622695;2060.527;-6587.475;-4526.948;435.4196;0.0;0.0;1838.2656
755.075;1.0010841;0.81636524;2060.397;-6593.9805;-4533.5835;381.2947;0.0;0.0;1838.2656
755.08;1.0009017;0.80739385;2059.4248;-6599.792;-4540.367;333.76343;0.0;0.0;1838.2656
755.085;1.0005693;0.8003917;2058.0332;-6603.795;-4545.7617;297.931;0.0;0.0;1838.2656
755.09;1.0002177;0.7951734;2056.7458;-6606.669;-4549.923;271.72803;0.0;0.0;1838.2656
755.095;0.9999623;0.79118216;2055.9048;-6609.2563;-4553.3516;251.39941;0.0;0.0;1838.2656
755.1;0.999833;0.7885259;2055.4922;-6610.918;-4555.426;237.57558;0.0;0.0;1838.2656
755.105;0.99977344;0.78659225;2055.1714;-6612.52;-4557.3486;227.55383;0.0;0.0;1838.2656
755.11;0.9996688;0.78600717;2054.4834;-6613.2524;-4558.769;225.70297;0.0;0.0;1838.2656
755.115;0.99942017;0.7871058;2053.1338;-6612.996;-4559.8623;234.46103;0.0;0.0;1838.2656
755.12;0.9990001;0.79112625;2051.161;-6610.368;-4559.207;260.57892;0.0;0.0;1838.2656
755.125;0.9984678;0.7982117;2048.832;-6605.701;-4556.869;304.31116;0.0;0.0;1838.2656
755.13;0.9978961;0.80847555;2046.4426;-6598.754;-4552.3115;365.6933;0.0;0.0;1838.2656
755.135;0.9973555;0.8219948;2044.2948;-6589.129;-4544.834;444.54456;0.0;0.0;1838.2656
755.14;0.99693483;0.83736813;2042.913;-6578.262;-4535.349;532.08923;0.0;0.0;1838.2656
755.145;0.9968088;0.85306805;2043.0311;-6567.506;-4524.4746;618.43494;0.0;0.0;1838.2656
755.15;0.9971351;0.86677504;2044.9823;-6558.647;-4513.6646;690.12384;0.0;0.0;1838.2656
755.155;0.9978624;0.876463;2048.2466;-6553.1436;-4504.897;737.0224;0.0;0.0;1838.2656
755.16;0.998757;0.88117737;2051.893;-6551.465;-4499.572;755.7282;0.0;0.0;1838.2656
755.165;0.99961764;0.88133425;2055.2754;-6552.823;-4497.548;749.8284;0.0;0.0;1838.2656
755.17;1.000356;0.8770847;2058.1377;-6557.3057;-4499.168;720.6685;0.0;0.0;1838.2656
755.175;1.0009451;0.869565;2060.4124;-6563.873;-4503.461;674.64966;0.0;0.0;1838.2656
755.18;1.0013902;0.8592399;2062.133;-6572.345;-4510.212;614.2673;0.0;0.0;1838.2656
755.185;1.0016941;0.8471595;2063.1794;-6581.9854;-4518.8057;545.5537;0.0;0.0;1838.2656
755.19;1.0017877;0.83456117;2063.2363;-6591.575;-4528.339;475.96268;0.0;0.0;1838.2656
755.195;1.0016012;0.82318634;2062.155;-6599.7793;-4537.624;415.3954;0.0;0.0;1838.2656
755.2;1.0011649;0.8138679;2060.233;-6606.1836;-4545.9507;367.8504;0.0;0.0;1838.2656
755.205;1.00061;0.80746233;2058.0442;-6610.333;-4552.289;336.90228;0.0;0.0;1838.2656
755.21;1.0000844;0.8038858;2056.1436;-6612.4224;-4556.279;320.97986;0.0;0.0;1838.2656
755.215;0.9996962;0.80234903;2054.8418;-6613.4355;-4558.5938;315.10843;0.0;0.0;1838.2656
755.22;0.9994697;0.8022327;2054.1729;-6613.6807;-4559.508;315.80472;0.0;0.0;1838.2656
755.225;0.99938077;0.80285144;2053.9502;-6613.659;-4559.709;319.66226;0.0;0.0;1838.2656
755.23;0.99935275;0.8040458;2053.8232;-6613.4897;-4559.6665;326.5027;0.0;0.0;1838.2656
755.235;0.9992931;0.8057815;2053.4683;-6612.9526;-4559.4844;336.78473;0.0;0.0;1838.2656
755.24;0.99914956;0.8082689;2052.7874;-6611.9185;-4559.131;351.8643;0.0;0.0;1838.2656
755.245;0.99894965;0.8118767;2052.0146;-6610.019;-4558.0044;373.30603;0.0;0.0;1838.2656
755.25;0.9987945;0.815931;2051.602;-6607.994;-4556.392;396.4897;0.0;0.0;1838.2656
755.255;0.9988028;0.81980664;2052.0073;-6606.373;-4554.3657;417.05255;0.0;0.0;1838.2656
755.26;0.99906427;0.8222455;2053.4573;-6606.178;-4552.7207;427.6021;0.0;0.0;1838.2656
755.265;0.9995632;0.8222347;2055.6614;-6608.003;-4552.342;423.13452;0.0;0.0;1838.2656
755.27;1.0001359;0.81936496;2057.7585;-6612.3843;-4554.626;403.1142;0.0;0.0;1838.2656
755.275;1.0005274;0.81508297;2058.8862;-6617.179;-4558.293;377.2446;0.0;0.0;1838.2656
755.28;1.0006117;0.8101786;2058.759;-6622.288;-4563.5293;350.45227;0.0;0.0;1838.2656
755.285;1.0004091;0.806277;2057.6172;-6626.1914;-4568.574;331.21924;0.0;0.0;1838.2656
755.29;1.0000379;0.8040569;2056.0537;-6628.4414;-4572.3877;322.10287;0.0;0.0;1838.2656
755.295;0.9996768;0.8033257;2054.834;-6629.7144;-4574.8804;320.51016;0.0;0.0;1838.2656
755.3;0.99950993;0.8031912;2054.5947;-6630.7534;-4576.1587;320.2467;0.0;0.0;1838.2656
755.305;0.99962527;0.8027512;2055.4175;-6632.058;-4576.6406;316.1747;0.0;0.0;1838.2656
755.31;0.99993026;0.80036604;2056.6821;-6635.4805;-4578.7983;300.49188;0.0;0.0;1838.2656
755.315;1.0001967;0.7971468;2057.4492;-6639.0586;-4581.6094;281.20428;0.0;0.0;1838.2656
755.32;1.0002195;0.793942;2057.09;-6642.4854;-4585.3955;264.24838;0.0;0.0;1838.2656
755.325;0.9999388;0.7921607;2055.5806;-6644.3955;-4588.815;257.44427;0.0;0.0;1838.2656
755.33;0.999428;0.79313755;2053.269;-6643.958;-4590.689;267.4545;0.0;0.0;1838.2656
755.335;0.99879164;0.7973888;2050.5918;-6640.721;-4590.1294;296.2535;0.0;0.0;1838.2656
755.34;0.9981373;0.8051267;2047.9957;-6634.614;-4586.618;344.11902;0.0;0.0;1838.2656
755.345;0.9975713;0.8156431;2045.894;-6626.817;-4580.923;406.31787;0.0;0.0;1838.2656
755.35;0.9971804;0.8282761;2044.5867;-6617.424;-4572.837;478.60095;0.0;0.0;1838.2656
755.355;0.9970127;0.84178853;2044.2028;-6607.799;-4563.596;553.8874;0.0;0.0;1838.2656
755.36;0.9970679;0.8548091;2044.6504;-6599.0537;-4554.4033;624.7977;0.0;0.0;1838.2656
755.365;0.9972869;0.8671361;2045.5846;-6591.176;-4545.5913;690.9102;0.0;0.0;1838.2656
755.37;0.99755955;0.87811387;2046.6271;-6584.5186;-4537.8916;749.3655;0.0;0.0;1838.2656
755.375;0.9978212;0.8879129;2047.654;-6578.674;-4531.0195;801.3512;0.0;0.0;1838.2656
755.38;0.99809265;0.8964949;2048.8271;-6573.816;-4524.989;846.33307;0.0;0.0;1838.2656
755.385;0.9984164;0.9033376;2050.1323;-6570.6777;-4520.5454;881.45886;0.0;0.0;1838.2656
755.39;0.99870145;0.9090863;2050.9553;-6568.042;-4517.087;911.51556;0.0;0.0;1838.2656
755.395;0.9987423;0.91482896;2050.7378;-6565.296;-4514.558;943.62036;0.0;0.0;1838.2656
755.4;0.9985337;0.9214904;2049.7866;-6561.543;-4511.7563;982.2591;0.0;0.0;1838.2656
755.405;0.9982685;0.92919874;2048.9534;-6557.0327;-4508.079;1026.4355;0.0;0.0;1838.2656
755.41;0.9981572;0.93757236;2048.8403;-6552.1016;-4503.261;1072.8405;0.0;0.0;1838.2656
755.415;0.99824923;0.94516844;2049.415;-6548.1636;-4498.7485;1113.5819;0.0;0.0;1838.2656
755.42;0.9984592;0.9518899;2050.2957;-6544.925;-4494.629;1148.888;0.0;0.0;1838.2656
755.425;0.99869055;0.95740175;2051.1921;-6542.5537;-4491.3613;1177.4918;0.0;0.0;1838.2656
755.43;0.9989107;0.96195024;2052.0708;-6540.7476;-4488.677;1200.8187;0.0;0.0;1838.2656
755.435;0.9991425;0.9650084;2053.0554;-6540.2456;-4487.1904;1215.7145;0.0;0.0;1838.2656
755.44;0.99941325;0.966405;2054.1646;-6541.16;-4486.9956;1221.198;0.0;0.0;1838.2656
755.445;0.9996867;0.96634465;2055.1677;-6543.2246;-4488.0566;1218.859;0.0;0.0;1838.2656
755.45;0.9998808;0.9656284;2055.7678;-6545.262;-4489.494;1213.7087;0.0;0.0;1838.2656
755.455;0.99994415;0.96431667;2055.873;-6547.8447;-4491.9717;1206.2645;0.0;0.0;1838.2656
755.46;0.99990034;0.9633103;2055.6875;-6549.6094;-4493.922;1201.0858;0.0;0.0;1838.2656
755.465;0.9998301;0.962103;2055.4768;-6551.747;-4496.2705;1194.849;0.0;0.0;1838.2656
755.47;0.9997761;0.9611923;2055.3423;-6553.434;-4498.092;1190.0958;0.0;0.0;1838.2656
755.475;0.9997392;0.9602533;2055.2305;-6555.213;-4499.9824;1185.141;0.0;0.0;1838.2656
755.48;0.9996925;0.9594832;2055.0552;-6556.7373;-4501.682;1181.2446;0.0;0.0;1838.2656
755.485;0.9996272;0.9586328;2054.7888;-6558.528;-4503.7393;1177.0878;0.0;0.0;1838.2656
755.49;0.99954045;0.9584406;2054.4214;-6559.344;-4504.923;1176.7626;0.0;0.0;1838.2656
755.495;0.99943095;0.9586763;2053.9546;-6559.836;-4505.8813;1178.9957;0.0;0.0;1838.2656
755.5;0.99929994;0.95961267;2053.353;-6559.7344;-4506.3813;1185.3628;0.0;0.0;1838.2656
755.505;0.99912405;0.9609799;2052.4834;-6559.607;-4507.1235;1194.6422;0.0;0.0;1838.2656
755.51;0.99886256;0.96431684;2051.1843;-6557.1646;-4505.9805;1215.643;0.0;0.0;1838.2656
755.515;0.9984822;0.9697511;2049.3826;-6552.8447;-4503.462;1249.2155;0.0;0.0;1838.2656
755.52;0.99799514;0.9774554;2047.2339;-6546.4785;-4499.2446;1296.0002;0.0;0.0;1838.2656
755.525;0.99747664;0.9874458;2045.15;-6538.507;-4493.357;1355.2627;0.0;0.0;1838.2656
755.53;0.9970624;0.99927825;2043.7367;-6529.036;-4485.2993;1423.3431;0.0;0.0;1838.2656
755.535;0.9969091;1.0116081;2043.6182;-6519.2744;-4475.6562;1491.5769;0.0;0.0;1838.2656
755.54;0.9971409;1.022535;2045.1191;-6510.95;-4465.831;1548.8346;0.0;0.0;1838.2656
755.545;0.99775314;1.0301176;2047.9528;-6505.574;-4457.6216;1584.9839;0.0;0.0;1838.2656
755.55;0.99857134;1.0337192;2051.2407;-6503.207;-4451.9663;1598.2701;0.0;0.0;1838.2656
755.555;0.99933285;1.0334591;2053.9556;-6503.7627;-4449.807;1591.4058;0.0;0.0;1838.2656
755.56;0.99982417;1.030883;2055.411;-6505.426;-4450.0146;1574.2885;0.0;0.0;1838.2656
755.565;0.9999623;1.0272244;2055.533;-6507.547;-4452.0137;1553.8678;0.0;0.0;1838.2656
755.57;0.9998282;1.0239009;2054.8071;-6508.9995;-4454.1924;1536.9908;0.0;0.0;1838.2656
755.575;0.9995962;1.0214854;2053.9746;-6509.496;-4455.5215;1525.3353;0.0;0.0;1838.2656
755.58;0.99944717;1.019235;2053.7256;-6510.0215;-4456.296;1513.423;0.0;0.0;1838.2656
755.585;0.9995096;1.0166727;2054.3071;-6510.8335;-4456.5264;1498.1295;0.0;0.0;1838.2656
755.59;0.999737;1.0127022;2055.3188;-6512.9478;-4457.629;1474.2092;0.0;0.0;1838.2656
755.595;0.99996346;1.0076007;2056.0718;-6515.999;-4459.9272;1444.5693;0.0;0.0;1838.2656
755.6;1.0000347;1.0022005;2056.0718;-6518.966;-4462.894;1414.7883;0.0;0.0;1838.2656
755.605;0.99989444;0.9975986;2055.288;-6520.914;-4465.626;1390.9775;0.0;0.0;1838.2656
755.61;0.9996161;0.9941786;2054.2258;-6521.3994;-4467.174;1374.2412;0.0;0.0;1838.2656
755.615;0.99939156;0.9916082;2053.751;-6521.3496;-4467.5986;1361.0157;0.0;0.0;1838.2656
755.62;0.999446;0.9883864;2054.6445;-6522.1074;-4467.463;1341.4612;0.0;0.0;1838.2656
755.625;0.99989253;0.98229104;2057.0107;-6525.98;-4468.969;1303.1141;0.0;0.0;1838.2656
755.63;1.0006133;0.9728459;2060.043;-6532.5454;-4472.5024;1244.9615;0.0;0.0;1838.2656
755.635;1.001304;0.960143;2062.4272;-6541.65;-4479.2227;1170.1392;0.0;0.0;1838.2656
755.64;1.001648;0.94573563;2063.1423;-6551.79;-4488.6475;1089.2552;0.0;0.0;1838.2656
755.645;1.0015202;0.9320943;2062.1174;-6560.786;-4498.669;1016.0758;0.0;0.0;1838.2656
755.65;1.0010601;0.9207796;2060.0957;-6567.6777;-4507.582;957.7209;0.0;0.0;1838.2656
755.655;1.0004985;0.9123808;2057.918;-6572.157;-4514.2393;915.75903;0.0;0.0;1838.2656
755.66;0.9999934;0.9062115;2056.0476;-6575.1074;-4519.0596;885.4771;0.0;0.0;1838.2656
755.665;0.9995964;0.9022685;2054.644;-6576.395;-4521.751;866.5396;0.0;0.0;1838.2656
755.67;0.99933684;0.9000861;2053.852;-6576.22;-4522.368;856.0878;0.0;0.0;1838.2656
755.675;0.9992551;0.8978803;2053.8086;-6576.787;-4522.9785;844.0105;0.0;0.0;1838.2656
755.68;0.9993634;0.8954521;2054.4485;-6577.6484;-4523.2;829.3394;0.0;0.0;1838.2656
755.685;0.9996026;0.89179647;2055.4766;-6579.7676;-4524.291;807.1234;0.0;0.0;1838.2656
755.69;0.99988043;0.8871371;2056.5251;-6582.8535;-4526.328;779.3307;0.0;0.0;1838.2656
755.695;1.0001167;0.88116205;2057.3677;-6587.1074;-4529.7397;744.6942;0.0;0.0;1838.2656
755.7;1.0002906;0.874827;2058.0027;-6591.4814;-4533.4785;708.4881;0.0;0.0;1838.2656
755.705;1.0004216;0.86784065;2058.454;-6596.7607;-4538.3066;669.0568;0.0;0.0;1838.2656
755.71;1.0004914;0.8605875;2058.546;-6602.3936;-4543.8477;628.87335;0.0;0.0;1838.2656
755.715;1.0004234;0.8544614;2057.9692;-6607.0425;-4549.073;596.2425;0.0;0.0;1838.2656
755.72;1.0001581;0.8498794;2056.6382;-6610.4053;-4553.767;573.6357;0.0;0.0;1838.2656
755.725;0.9997349;0.8474796;2054.8242;-6612.117;-4557.293;564.0292;0.0;0.0;1838.2656
755.73;0.99925727;0.84796387;2052.9236;-6611.627;-4558.703;570.5014;0.0;0.0;1838.2656
755.735;0.998806;0.85072315;2051.125;-6609.584;-4558.459;589.3153;0.0;0.0;1838.2656
755.74;0.9983794;0.8557826;2049.3362;-6606.0586;-4556.7227;620.795;0.0;0.0;1838.2656
755.745;0.9979351;0.86354476;2047.4172;-6600.3022;-4552.885;667.4395;0.0;0.0;1838.2656
755.75;0.99745965;0.87393516;2045.4641;-6592.486;-4547.0215;728.6466;0.0;0.0;1838.2656
755.755;0.9970283;0.8862603;2043.8759;-6583.37;-4539.494;799.7937;0.0;0.0;1838.2656
755.76;0.9967628;0.900043;2043.1425;-6573.317;-4530.1743;877.26953;0.0;0.0;1838.2656
755.765;0.9967684;0.9136489;2043.5742;-6563.835;-4520.2607;951.4398;0.0;0.0;1838.2656
755.77;0.99706626;0.92579746;2045.0922;-6555.8755;-4510.783;1015.4007;0.0;0.0;1838.2656
755.775;0.99757355;0.93558604;2047.2357;-6550.0146;-4502.779;1065.0953;0.0;0.0;1838.2656
755.78;0.99813265;0.94285995;2049.3198;-6546.089;-4496.769;1101.0415;0.0;0.0;1838.2656
755.785;0.9985725;0.94792545;2050.7656;-6543.774;-4493.0083;1126.0851;0.0;0.0;1838.2656
755.79;0.9988035;0.95179576;2051.3706;-6542.302;-4490.931;1146.2191;0.0;0.0;1838.2656
755.795;0.998838;0.9554638;2051.2832;-6540.6504;-4489.367;1166.6227;0.0;0.0;1838.2656
755.8;0.9987473;0.9595817;2050.8455;-6538.3896;-4487.544;1190.2073;0.0;0.0;1838.2656
755.805;0.99863636;0.9640507;2050.5405;-6535.677;-4485.136;1215.463;0.0;0.0;1838.2656
755.81;0.99863434;0.96828765;2050.839;-6533.132;-4482.293;1238.2316;0.0;0.0;1838.2656
755.815;0.99882036;0.97127056;2051.858;-6531.8896;-4480.0317;1252.644;0.0;0.0;1838.2656
755.82;0.9991388;0.9726555;2053.1719;-6531.9414;-4478.7695;1257.6536;0.0;0.0;1838.2656
755.825;0.9994202;0.97250396;2054.0552;-6532.9297;-4478.8745;1255.0516;0.0;0.0;1838.2656
755.83;0.9994964;0.9718304;2054.0332;-6533.933;-4479.9;1251.3811;0.0;0.0;1838.2656
755.835;0.9993402;0.9716443;2053.2427;-6533.8447;-4480.602;1251.9355;0.0;0.0;1838.2656
755.84;0.9990759;0.972469;2052.2793;-6532.378;-4480.0986;1258.4103;0.0;0.0;1838.2656
755.845;0.9988742;0.9732257;2051.7822;-6531.127;-4479.3447;1263.5778;0.0;0.0;1838.2656
755.85;0.9988652;0.973374;2052.1582;-6530.236;-4478.0776;1263.6434;0.0;0.0;1838.2656
755.855;0.99909806;0.9718554;2053.491;-6530.366;-4476.875;1252.6033;0.0;0.0;1838.2656
755.86;0.99954754;0.96731323;2055.6255;-6532.995;-4477.3696;1223.2849;0.0;0.0;1838.2656
755.865;1.0001485;0.9592889;2058.2043;-6537.9946;-4479.79;1173.8745;0.0;0.0;1838.2656
755.87;1.0007806;0.9479414;2060.7268;-6545.294;-4484.5674;1106.2509;0.0;0.0;1838.2656
755.875;1.0013211;0.9332703;2062.7388;-6555.1523;-4492.4136;1021.3184;0.0;0.0;1838.2656
755.88;1.0016831;0.9168197;2063.9526;-6565.7695;-4501.817;928.169;0.0;0.0;1838.2656
755.885;1.001829;0.89943;2064.3115;-6577.01;-4512.698;831.5504;0.0;0.0;1838.2656
755.89;1.0017799;0.8823233;2063.9126;-6587.8994;-4523.987;738.0086;0.0;0.0;1838.2656
755.895;1.0015697;0.8668194;2062.9082;-6596.9966;-4534.0884;654.5165;0.0;0.0;1838.2656
755.9;1.0012411;0.85281444;2061.4841;-6605.308;-4543.824;580.13007;0.0;0.0;1838.2656
755.905;1.0008434;0.84085983;2059.859;-6612.453;-4552.594;517.4535;0.0;0.0;1838.2656
755.91;1.0004334;0.8314284;2058.2341;-6617.5283;-4559.294;468.69058;0.0;0.0;1838.2656
755.915;1.0000459;0.82426643;2056.73;-6621.099;-4564.369;432.20206;0.0;0.0;1838.2656
755.92;0.9997001;0.8192767;2055.378;-6623.2295;-4567.8516;407.38876;0.0;0.0;1838.2656
755.925;0.99939036;0.8156607;2054.2095;-6624.711;-4570.5015;389.78406;0.0;0.0;1838.2656
755.93;0.999141;0.813818;2053.3354;-6624.715;-4571.3794;381.3701;0.0;0.0;1838.2656
755.935;0.998985;0.8126431;2052.9033;-6624.5645;-4571.661;375.75504;0.0;0.0;1838.2656
755.94;0.9989595;0.8116223;2053.0361;-6624.5674;-4571.5312;369.86008;0.0;0.0;1838.2656
755.945;0.9990752;0.81028104;2053.6545;-6624.953;-4571.299;361.22623;0.0;0.0;1838.2656
755.95;0.9992754;0.80789346;2054.47;-6626.12;-4571.6504;346.4285;0.0;0.0;1838.2656
755.955;0.9994723;0.8043377;2055.1704;-6628.716;-4573.5454;325.41827;0.0;0.0;1838.2656
755.96;0.9996089;0.8005108;2055.5251;-6631.0137;-4575.4883;303.60428;0.0;0.0;1838.2656
755.965;0.99963343;0.79669946;2055.4097;-6633.2896;-4577.88;282.8163;0.0;0.0;1838.2656
755.97;0.99954325;0.7933526;2054.8877;-6635.0674;-4580.1797;265.40314;0.0;0.0;1838.2656
755.975;0.9993834;0.7906726;2054.233;-6636.4277;-4582.195;251.9328;0.0;0.0;1838.2656
755.98;0.99924767;0.78861755;2053.8245;-6637.4375;-4583.6133;241.41675;0.0;0.0;1838.2656
755.985;0.99920946;0.7869913;2053.7476;-6638.153;-4584.4053;232.60217;0.0;0.0;1838.2656
755.99;0.999213;0.78563774;2053.6826;-6638.631;-4584.948;225.26721;0.0;0.0;1838.2656
755.995;0.999157;0.78490615;2053.2603;-6638.4595;-4585.199;222.07741;0.0;0.0;1838.2656
756.0;0.99898285;0.78496796;2052.4238;-6637.6987;-4585.275;224.09117;0.0;0.0;1838.2656
756.005;0.9987419;0.78596675;2051.474;-6636.4033;-4584.929;231.49861;0.0;0.0;1838.2656
756.01;0.99853754;0.78789145;2050.848;-6634.4756;-4583.628;243.36559;0.0;0.0;1838.2656
756.015;0.9984732;0.79021895;2050.892;-6632.1445;-4581.2524;256.11273;0.0;0.0;1838.2656
756.02;0.9986008;0.7917678;2051.6978;-6630.791;-4579.0933;263.04288;0.0;0.0;1838.2656
756.025;0.9988918;0.79174;2053.0012;-6630.782;-4577.7812;260.28296;0.0;0.0;1838.2656
756.03;0.9992289;0.7900824;2054.286;-6632.0234;-4577.7373;248.5723;0.0;0.0;1838.2656
756.035;0.99948156;0.787021;2055.085;-6634.1655;-4579.0806;230.09102;0.0;0.0;1838.2656
756.04;0.99957055;0.7836393;2055.233;-6636.3223;-4581.0894;211.14584;0.0;0.0;1838.2656
756.045;0.9995136;0.78056234;2054.9019;-6637.759;-4582.857;194.839;0.0;0.0;1838.2656
756.05;0.9993822;0.77809346;2054.365;-6638.677;-4584.3115;182.29744;0.0;0.0;1838.2656
756.055;0.9992372;0.7760508;2053.8303;-6639.6978;-4585.867;172.10194;0.0;0.0;1838.2656
756.06;0.99911433;0.7746532;2053.3982;-6640.1357;-4586.7373;165.25867;0.0;0.0;1838.2656
756.065;0.99902225;0.7739956;2053.0874;-6640.07;-4586.9824;162.25371;0.0;0.0;1838.2656
756.07;0.9989595;0.7735576;2052.8618;-6640.229;-4587.367;160.28952;0.0;0.0;1838.2656
756.075;0.9989017;0.7738541;2052.5396;-6639.8027;-4587.263;162.56898;0.0;0.0;1838.2656
756.08;0.9987829;0.77484876;2051.858;-6639.3843;-4587.5264;169.41779;0.0;0.0;1838.2656
756.085;0.9985458;0.77768296;2050.6719;-6637.176;-4586.504;187.41983;0.0;0.0;1838.2656
756.09;0.9981924;0.78263015;2049.1143;-6633.287;-4584.173;217.8177;0.0;0.0;1838.2656
756.095;0.99780035;0.7895341;2047.5867;-6628.045;-4580.458;258.9468;0.0;0.0;1838.2656
756.1;0.9974866;0.7982031;2046.4983;-6621.4717;-4574.9736;308.93158;0.0;0.0;1838.2656
756.105;0.99731934;0.8077768;2046.0535;-6614.367;-4568.3135;362.61807;0.0;0.0;1838.2656
756.11;0.9973155;0.817581;2046.252;-6607.0225;-4560.7705;416.28934;0.0;0.0;1838.2656
756.115;0.9974549;0.8261673;2047.0049;-6601.319;-4554.314;462.13495;0.0;0.0;1838.2656
756.12;0.99770737;0.8335502;2048.136;-6596.389;-4548.253;500.58823;0.0;0.0;1838.2656
756.125;0.99801177;0.83896273;2049.3723;-6593.0454;-4543.673;527.96436;0.0;0.0;1838.2656
756.13;0.99829954;0.84296244;2050.4897;-6590.419;-4539.929;547.7871;0.0;0.0;1838.2656
756.135;0.99854237;0.8453265;2051.46;-6588.7056;-4537.2456;558.884;0.0;0.0;1838.2656
756.14;0.99876046;0.8460476;2052.3394;-6587.995;-4535.656;561.10175;0.0;0.0;1838.2656
756.145;0.99895746;0.84551257;2053.108;-6587.9307;-4534.8228;556.61426;0.0;0.0;1838.2656
756.15;0.99912167;0.84342295;2053.7751;-6588.7266;-4534.951;543.75604;0.0;0.0;1838.2656
