time;temperature;pressure;kinetic_energy;potential_energy;total_energy;virial;msd;diffusion;volume
1795.005;0.5825301;-0.23293276;1197.0067;-7091.078;-5894.0713;-3678.5903;0.0;0.0;1838.2656
1795.01;0.5824142;-0.231547;1196.5304;-7090.037;-5893.507;-3669.9954;0.0;0.0;1838.2656
1795.015;0.5823047;-0.22993422;1196.1621;-7088.7812;-5892.619;-3660.3647;0.0;0.0;1838.2656
1795.02;0.58224857;-0.22801928;1196.0613;-7087.0586;-5890.997;-3649.6025;0.0;0.0;1838.2656
1795.025;0.5822724;-0.22639625;1196.3016;-7085.534;-5889.2324;-3641.1326;0.0;0.0;1838.2656
1795.03;0.5823801;-0.22552186;1196.8728;-7084.6235;-5887.751;-3637.453;0.0;0.0;1838.2656
1795.035;0.58255816;-0.22596776;1197.6934;-7084.824;-5887.131;-3641.553;0.0;0.0;1838.2656
1795.04;0.5827761;-0.22738528;1198.621;-7085.5854;-5886.9644;-3651.2256;0.0;0.0;1838.2656
1795.045;0.58299476;-0.23002993;1199.4846;-7087.0957;-5887.6113;-3667.5376;0.0;0.0;1838.2656
1795.05;0.58317024;-0.23377223;1200.1238;-7089.701;-5889.577;-3689.4539;0.0;0.0;1838.2656
1795.055;0.5832729;-0.23802762;1200.4414;-7092.335;-5891.8936;-3713.557;0.0;0.0;1838.2656
1795.06;0.5832895;-0.24238634;1200.4071;-7095.016;-5894.609;-3737.5256;0.0;0.0;1838.2656
1795.065;0.5832232;-0.2465302;1200.0463;-7097.621;-5897.5747;-3759.6565;0.0;0.0;1838.2656
1795.07;0.58308685;-0.24987108;1199.436;-7099.391;-5899.955;-3776.8604;0.0;0.0;1838.2656
1795.075;0.5829066;-0.25224704;1198.6775;-7100.522;-5901.8447;-3788.446;0.0;0.0;1838.2656
1795.08;0.5827064;-0.25314844;1197.8657;-7100.209;-5902.3433;-3791.7937;0.0;0.0;1838.2656
1795.085;0.582509;-0.2533233;1197.0979;-7099.7603;-5902.662;-3791.2224;0.0;0.0;1838.2656
1795.09;0.58233774;-0.25265935;1196.4597;-7098.7764;-5902.3164;-3786.2844;0.0;0.0;1838.2656
1795.095;0.5822098;-0.25099242;1196.0078;-7096.9614;-5900.9536;-3776.188;0.0;0.0;1838.2656
1795.1;0.58213377;-0.24913672;1195.7603;-7095.4272;-5899.667;-3765.459;0.0;0.0;1838.2656
1795.105;0.5821072;-0.24683166;1195.6896;-7093.365;-5897.676;-3752.6057;0.0;0.0;1838.2656
1795.11;0.5821166;-0.2444567;1195.7432;-7091.4033;-5895.66;-3739.6152;0.0;0.0;1838.2656
1795.115;0.5821502;-0.24225806;1195.8765;-7089.5566;-5893.68;-3727.7568;0.0;0.0;1838.2656
1795.12;0.5821975;-0.24012798;1196.0504;-7087.7314;-5891.681;-3716.358;0.0;0.0;1838.2656
1795.125;0.5822512;-0.23817278;1196.2555;-7086.057;-5889.802;-3705.9856;0.0;0.0;1838.2656
1795.13;0.5823148;-0.23675306;1196.5261;-7084.9365;-5888.41;-3698.6973;0.0;0.0;1838.2656
1795.135;0.58240217;-0.23586544;1196.924;-7084.349;-5887.4253;-3694.598;0.0;0.0;1838.2656
1795.14;0.5825282;-0.23563203;1197.5215;-7084.293;-5886.7715;-3694.5059;0.0;0.0;1838.2656
1795.145;0.58271027;-0.23611265;1198.3389;-7084.7036;-5886.3647;-3698.791;0.0;0.0;1838.2656
1795.15;0.5829344;-0.23801747;1199.2817;-7086.551;-5887.269;-3711.1814;0.0;0.0;1838.2656
1795.155;0.58316296;-0.24082947;1200.1715;-7088.995;-5888.8237;-3728.4685;0.0;0.0;1838.2656
1795.16;0.58334637;-0.24468657;1200.8042;-7092.403;-5891.5986;-3751.0051;0.0;0.0;1838.2656
1795.165;0.58343774;-0.24888244;1201.0271;-7096.0527;-5895.0254;-3774.5903;0.0;0.0;1838.2656
1795.17;0.58341855;-0.25293866;1200.8186;-7099.541;-5898.7227;-3796.5425;0.0;0.0;1838.2656
1795.175;0.5833036;-0.25619096;1200.2588;-7102.2666;-5902.008;-3813.3586;0.0;0.0;1838.2656
1795.18;0.5831209;-0.25850356;1199.4734;-7104.2197;-5904.746;-3824.5413;0.0;0.0;1838.2656
1795.185;0.5829039;-0.25942132;1198.58;-7105.075;-5906.495;-3827.816;0.0;0.0;1838.2656
1795.19;0.58267605;-0.25911683;1197.6729;-7105.0605;-5907.3877;-3824.3223;0.0;0.0;1838.2656
1795.195;0.5824583;-0.2577118;1196.8289;-7104.3013;-5907.4727;-3814.886;0.0;0.0;1838.2656
1795.2;0.58226603;-0.25521603;1196.0989;-7102.862;-5906.7627;-3799.6624;0.0;0.0;1838.2656
1795.205;0.582108;-0.25199488;1195.5253;-7101.053;-5905.528;-3780.7512;0.0;0.0;1838.2656
1795.21;0.5819941;-0.248103;1195.1403;-7098.8574;-5903.7173;-3758.518;0.0;0.0;1838.2656
1795.215;0.5819284;-0.24348544;1194.9437;-7095.912;-5900.9683;-3732.6602;0.0;0.0;1838.2656
1795.22;0.5819044;-0.2387289;1194.9005;-7093.037;-5898.1367;-3706.3423;0.0;0.0;1838.2656
1795.225;0.58190936;-0.23411234;1194.9268;-7090.468;-5895.541;-3680.9355;0.0;0.0;1838.2656
1795.23;0.5819137;-0.22928551;1194.919;-7087.676;-5892.757;-3654.3008;0.0;0.0;1838.2656
1795.235;0.58189887;-0.22426362;1194.797;-7084.827;-5890.0303;-3626.3623;0.0;0.0;1838.2656
1795.24;0.5818472;-0.21914142;1194.5297;-7082.125;-5887.595;-3597.5798;0.0;0.0;1838.2656
1795.245;0.58176404;-0.21321471;1194.1394;-7078.3916;-5884.252;-3564.1147;0.0;0.0;1838.2656
1795.25;0.5816574;-0.20683348;1193.6843;-7074.574;-5880.8896;-3528.0132;0.0;0.0;1838.2656
1795.255;0.58154833;-0.19984536;1193.2417;-7070.2246;-5876.983;-3488.59;0.0;0.0;1838.2656
1795.26;0.5814535;-0.19237256;1192.8862;-7065.506;-5872.6196;-3446.668;0.0;0.0;1838.2656
1795.265;0.5813923;-0.1846881;1192.7059;-7060.6367;-5867.9307;-3403.9292;0.0;0.0;1838.2656
1795.27;0.5813876;-0.1772124;1192.7699;-7055.9946;-5863.2246;-3362.83;0.0;0.0;1838.2656
1795.275;0.58144855;-0.16997579;1193.1255;-7051.494;-5858.3687;-3323.6328;0.0;0.0;1838.2656
1795.28;0.58158594;-0.16378161;1193.7817;-7047.918;-5854.136;-3290.786;0.0;0.0;1838.2656
1795.285;0.58179;-0.15855958;1194.6824;-7044.707;-5850.0244;-3263.7886;0.0;0.0;1838.2656
1795.29;0.5820399;-0.15511702;1195.7465;-7043.085;-5847.3384;-3246.932;0.0;0.0;1838.2656
1795.295;0.58231676;-0.15315947;1196.8877;-7042.3867;-5845.499;-3238.4187;0.0;0.0;1838.2656
1795.3;0.5825983;-0.15287022;1198.0298;-7042.871;-5844.8413;-3239.108;0.0;0.0;1838.2656
1795.305;0.58286947;-0.15437008;1199.113;-7044.5073;-5845.3945;-3249.5457;0.0;0.0;1838.2656
1795.31;0.58311504;-0.15713684;1200.074;-7046.9297;-5846.8555;-3266.7258;0.0;0.0;1838.2656
1795.315;0.5833198;-0.1612116;1200.8264;-7050.2188;-5849.3926;-3290.7021;0.0;0.0;1838.2656
1795.32;0.58345646;-0.16618298;1201.2703;-7053.914;-5852.6436;-3319.0059;0.0;0.0;1838.2656
1795.325;0.5835066;-0.1714253;1201.3595;-7057.67;-5856.3105;-3348.0947;0.0;0.0;1838.2656
1795.33;0.5834728;-0.17689812;1201.1313;-7061.557;-5860.426;-3377.8198;0.0;0.0;1838.2656
1795.335;0.5833745;-0.18181981;1200.7029;-7064.8506;-5864.1475;-3404.105;0.0;0.0;1838.2656
1795.34;0.5832521;-0.18608727;1200.2224;-7067.33;-5867.1074;-3426.6782;0.0;0.0;1838.2656
1795.345;0.58313525;-0.19003707;1199.7937;-7069.754;-5869.96;-3447.6033;0.0;0.0;1838.2656
1795.35;0.5830411;-0.19358905;1199.4492;-7071.9736;-5872.5244;-3466.5027;0.0;0.0;1838.2656
1795.355;0.5829649;-0.19647905;1199.1516;-7073.4004;-5874.249;-3481.8452;0.0;0.0;1838.2656
1795.36;0.5828914;-0.19916247;1198.8159;-7074.788;-5875.972;-3495.9724;0.0;0.0;1838.2656
1795.365;0.58279514;-0.2013289;1198.3741;-7075.7188;-5877.3447;-3507.0364;0.0;0.0;1838.2656
1795.37;0.5826726;-0.20278677;1197.8394;-7075.95;-5878.111;-3514.0066;0.0;0.0;1838.2656
1795.375;0.5825375;-0.20369175;1197.2957;-7075.8633;-5878.5674;-3517.91;0.0;0.0;1838.2656
1795.38;0.58242005;-0.20408928;1196.9015;-7075.249;-5878.3477;-3519.314;0.0;0.0;1838.2656
1795.385;0.58236694;-0.20420429;1196.8335;-7074.499;-5877.6655;-3519.8123;0.0;0.0;1838.2656
1795.39;0.5824129;-0.20467916;1197.1963;-7074.1494;-5876.953;-3523.1565;0.0;0.0;1838.2656
1795.395;0.58256555;-0.20606758;1197.9407;-7074.562;-5876.621;-3532.3022;0.0;0.0;1838.2656
1795.4;0.5827842;-0.20849657;1198.8693;-7075.888;-5877.019;-3547.5547;0.0;0.0;1838.2656
1795.405;0.5830119;-0.21226479;1199.7664;-7078.369;-5878.6025;-3570.13;0.0;0.0;1838.2656
1795.41;0.5832055;-0.21682057;1200.4966;-7081.2896;-5880.793;-3596.7146;0.0;0.0;1838.2656
1795.415;0.58334965;-0.22231372;1201.0635;-7084.8887;-5883.825;-3628.1418;0.0;0.0;1838.2656
1795.42;0.58346575;-0.22846043;1201.543;-7089.102;-5887.559;-3662.9988;0.0;0.0;1838.2656
1795.425;0.58356977;-0.23520982;1201.9976;-7093.8804;-5891.883;-3701.1296;0.0;0.0;1838.2656
1795.43;0.583672;-0.24247184;1202.4249;-7099.1514;-5896.7266;-3742.0327;0.0;0.0;1838.2656
1795.435;0.5837565;-0.24994515;1202.7279;-7104.4375;-5901.7095;-3783.8525;0.0;0.0;1838.2656
1795.44;0.5837904;-0.2572575;1202.7722;-7109.6484;-5906.876;-3824.2673;0.0;0.0;1838.2656
1795.445;0.58374417;-0.26430902;1202.4587;-7114.8867;-5912.4277;-3862.528;0.0;0.0;1838.2656
1795.45;0.5836038;-0.270556;1201.7799;-7119.6875;-5917.9077;-3895.6213;0.0;0.0;1838.2656
1795.455;0.58338386;-0.2751692;1200.8009;-7123.1025;-5922.302;-3919.104;0.0;0.0;1838.2656
1795.46;0.58310425;-0.27818218;1199.6218;-7125.5938;-5925.9717;-3933.3618;0.0;0.0;1838.2656
1795.465;0.5827941;-0.27936244;1198.3484;-7126.784;-5928.4355;-3937.3237;0.0;0.0;1838.2656
1795.47;0.58247536;-0.27856058;1197.0685;-7126.395;-5929.3267;-3930.3418;0.0;0.0;1838.2656
1795.475;0.5821691;-0.2758717;1195.8671;-7124.835;-5928.968;-3913.1106;0.0;0.0;1838.2656
1795.48;0.58189595;-0.2716225;1194.8376;-7122.2397;-5927.4023;-3887.6182;0.0;0.0;1838.2656
1795.485;0.5816801;-0.2660463;1194.0754;-7118.833;-5924.758;-3855.342;0.0;0.0;1838.2656
1795.49;0.58154213;-0.25967982;1193.6373;-7114.997;-5921.36;-3819.3562;0.0;0.0;1838.2656
1795.495;0.58148485;-0.25311768;1193.5153;-7111.3525;-5917.8374;-3782.923;0.0;0.0;1838.2656
1795.5;0.5814986;-0.2465572;1193.6566;-7107.8057;-5914.149;-3747.0261;0.0;0.0;1838.2656
1795.505;0.58156514;-0.24009101;1193.9724;-7104.3086;-5910.336;-3711.998;0.0;0.0;1838.2656
1795.51;0.5816583;-0.23404515;1194.3541;-7100.9336;-5906.5796;-3679.4197;0.0;0.0;1838.2656
1795.515;0.5817527;-0.22866163;1194.7178;-7098.2354;-5903.5176;-3650.458;0.0;0.0;1838.2656
1795.52;0.5818345;-0.22396843;1195.021;-7096.119;-5901.098;-3625.1824;0.0;0.0;1838.2656
1795.525;0.581898;-0.21952616;1195.2396;-7093.8154;-5898.5757;-3601.1213;0.0;0.0;1838.2656
1795.53;0.5819391;-0.2155964;1195.366;-7091.7793;-5896.413;-3579.7021;0.0;0.0;1838.2656
1795.535;0.5819582;-0.21195275;1195.4065;-7089.85;-5894.4434;-3559.6892;0.0;0.0;1838.2656
1795.54;0.58195835;-0.20852193;1195.3701;-7087.996;-5892.626;-3540.6963;0.0;0.0;1838.2656
1795.545;0.58194065;-0.20509292;1195.2577;-7085.7705;-5890.5127;-3521.561;0.0;0.0;1838.2656
1795.55;0.5819048;-0.20183529;1195.0806;-7083.591;-5888.5103;-3503.2417;0.0;0.0;1838.2656
1795.555;0.58185744;-0.19871615;1194.8792;-7081.4097;-5886.5303;-3485.6375;0.0;0.0;1838.2656
1795.56;0.58181286;-0.19522575;1194.7148;-7078.5684;-5883.8535;-3466.06;0.0;0.0;1838.2656
1795.565;0.5817864;-0.19210006;1194.6445;-7076.3584;-5881.714;-3448.682;0.0;0.0;1838.2656
1795.57;0.5817869;-0.18876098;1194.6729;-7073.391;-5878.7183;-3430.3242;0.0;0.0;1838.2656
1795.575;0.581803;-0.18580274;1194.713;-7070.9834;-5876.2705;-3414.0903;0.0;0.0;1838.2656
1795.58;0.5818015;-0.18286194;1194.6224;-7068.485;-5873.8623;-3397.6914;0.0;0.0;1838.2656
1795.585;0.58174783;-0.17964548;1194.281;-7065.7437;-5871.463;-3379.2703;0.0;0.0;1838.2656
1795.59;0.5816245;-0.1755983;1193.6731;-7062.188;-5868.5146;-3355.735;0.0;0.0;1838.2656
1795.595;0.5814483;-0.17040738;1192.908;-7057.3774;-5864.4697;-3325.5781;0.0;0.0;1838.2656
1795.6;0.58125824;-0.1645199;1192.1453;-7052.3066;-5860.161;-3291.5845;0.0;0.0;1838.2656
1795.605;0.5810937;-0.15769483;1191.5491;-7046.451;-5854.9023;-3252.7532;0.0;0.0;1838.2656
1795.61;0.58099294;-0.15046053;1191.2554;-7040.329;-5849.0737;-3212.27;0.0;0.0;1838.2656
1795.615;0.5809814;-0.14312811;1191.3567;-7034.1885;-5842.832;-3172.036;0.0;0.0;1838.2656
1795.62;0.58107543;-0.13629167;1191.9005;-7028.6;-5836.6997;-3135.4219;0.0;0.0;1838.2656
1795.625;0.5812776;-0.13085942;1192.8843;-7024.342;-5831.4575;-3107.4316;0.0;0.0;1838.2656
1795.63;0.5815778;-0.12684967;1194.2155;-7021.1807;-5826.9653;-3087.981;0.0;0.0;1838.2656
1795.635;0.5819362;-0.12473233;1195.7109;-7019.4893;-5823.7783;-3079.2954;0.0;0.0;1838.2656
1795.64;0.5823009;-0.12458941;1197.1515;-7019.3506;-5822.199;-3081.3882;0.0;0.0;1838.2656
1795.645;0.582619;-0.12607391;1198.3486;-7020.2905;-5821.942;-3091.9692;0.0;0.0;1838.2656
1795.65;0.5828568;-0.12893966;1199.2032;-7022.253;-5823.05;-3109.4824;0.0;0.0;1838.2656
1795.655;0.58300394;-0.13254616;1199.6774;-7024.476;-5824.799;-3130.3198;0.0;0.0;1838.2656
1795.66;0.5830559;-0.13647372;1199.7753;-7026.9233;-5827.148;-3152.1753;0.0;0.0;1838.2656
1795.665;0.58302176;-0.140208;1199.5278;-7029.059;-5829.5312;-3172.2744;0.0;0.0;1838.2656
1795.67;0.5829086;-0.14355612;1198.9758;-7030.882;-5831.9062;-3189.6345;0.0;0.0;1838.2656
1795.675;0.58273023;-0.14599822;1198.1738;-7031.952;-5833.7783;-3201.4983;0.0;0.0;1838.2656
1795.68;0.58250135;-0.1472287;1197.205;-7032.041;-5834.836;-3206.3462;0.0;0.0;1838.2656
1795.685;0.5822492;-0.1471198;1196.1748;-7030.908;-5834.7334;-3203.6855;0.0;0.0;1838.2656
1795.69;0.58199996;-0.14601685;1195.2253;-7029.2188;-5833.993;-3195.7039;0.0;0.0;1838.2656
1795.695;0.58179784;-0.14399974;1194.5433;-7026.7983;-5832.255;-3183.216;0.0;0.0;1838.2656
1795.7;0.5816885;-0.14138015;1194.291;-7023.918;-5829.627;-3168.265;0.0;0.0;1838.2656
1795.705;0.58170146;-0.13904442;1194.5583;-7021.2446;-5826.6865;-3155.9185;0.0;0.0;1838.2656
1795.71;0.58184403;-0.13754734;1195.3447;-7019.3438;-5823.999;-3149.235;0.0;0.0;1838.2656
1795.715;0.58210313;-0.13773239;1196.5442;-7018.9316;-5822.3877;-3152.6545;0.0;0.0;1838.2656
1795.72;0.5824341;-0.13951348;1197.9506;-7019.5713;-5821.6206;-3165.2896;0.0;0.0;1838.2656
1795.725;0.58277905;-0.14329924;1199.3253;-7021.891;-5822.566;-3188.9167;0.0;0.0;1838.2656
1795.73;0.5830815;-0.14864159;1200.4626;-7025.1826;-5824.7197;-3220.6536;0.0;0.0;1838.2656
1795.735;0.5833022;-0.15518796;1201.2229;-7029.241;-5828.0186;-3258.276;0.0;0.0;1838.2656
1795.74;0.58341837;-0.16252872;1201.5715;-7033.836;-5832.2646;-3299.456;0.0;0.0;1838.2656
1795.745;0.5834416;-0.17027931;1201.5636;-7038.782;-5837.2188;-3342.1829;0.0;0.0;1838.2656
1795.75;0.58338946;-0.17746197;1201.2773;-7042.714;-5841.4365;-3381.2214;0.0;0.0;1838.2656
1795.755;0.5832832;-0.18422212;1200.8141;-7046.5635;-5845.7495;-3417.5757;0.0;0.0;1838.2656
1795.76;0.5831506;-0.19045882;1200.2543;-7049.899;-5849.6445;-3450.8503;0.0;0.0;1838.2656
1795.765;0.583003;-0.19565839;1199.6636;-7052.12;-5852.4565;-3478.3435;0.0;0.0;1838.2656
1795.77;0.5828607;-0.20029956;1199.1189;-7054.0586;-5854.9395;-3502.849;0.0;0.0;1838.2656
1795.775;0.5827405;-0.20429267;1198.6907;-7055.4844;-5856.794;-3524.014;0.0;0.0;1838.2656
1795.78;0.5826584;-0.20802176;1198.4148;-7056.8643;-5858.449;-3544.0273;0.0;0.0;1838.2656
1795.785;0.58261395;-0.21177696;1198.2927;-7058.398;-5860.1055;-3564.4924;0.0;0.0;1838.2656
1795.79;0.5826069;-0.2153331;1198.3121;-7059.6025;-5861.2905;-3584.1426;0.0;0.0;1838.2656
1795.795;0.58263034;-0.21901281;1198.4424;-7060.98;-5862.5376;-3604.696;0.0;0.0;1838.2656
1795.8;0.5826752;-0.22313038;1198.6417;-7062.8105;-5864.169;-3627.8022;0.0;0.0;1838.2656
1795.805;0.5827295;-0.22717564;1198.8567;-7064.246;-5865.3896;-3650.5408;0.0;0.0;1838.2656
1795.81;0.5827796;-0.23151338;1199.0511;-7065.9746;-5866.9233;-3674.8516;0.0;0.0;1838.2656
1795.815;0.5828212;-0.23632003;1199.1951;-7068.2393;-5869.044;-3701.647;0.0;0.0;1838.2656
1795.82;0.5828436;-0.2409405;1199.2384;-7070.1206;-5870.8823;-3727.2146;0.0;0.0;1838.2656
1795.825;0.58283335;-0.2455654;1199.144;-7072.15;-5873.006;-3752.5312;0.0;0.0;1838.2656
1795.83;0.58278733;-0.25001073;1198.9016;-7074.195;-5875.293;-3776.5615;0.0;0.0;1838.2656
1795.835;0.5827071;-0.2539543;1198.554;-7075.7705;-5877.217;-3797.6143;0.0;0.0;1838.2656
1795.84;0.5826144;-0.25739825;1198.1985;-7077.1797;-5878.9814;-3815.896;0.0;0.0;1838.2656
1795.845;0.5825365;-0.2602666;1197.9388;-7078.1094;-5880.1704;-3831.195;0.0;0.0;1838.2656
1795.85;0.58249414;-0.26278767;1197.8413;-7079.0205;-5881.179;-3844.9033;0.0;0.0;1838.2656
1795.855;0.58249545;-0.2652222;1197.9005;-7080.0483;-5882.148;-3858.4475;0.0;0.0;1838.2656
1795.86;0.5825255;-0.2675223;1198.0437;-7081.1245;-5883.081;-3871.4185;0.0;0.0;1838.2656
1795.865;0.5825618;-0.2695802;1198.1426;-7082.0034;-5883.861;-3882.965;0.0;0.0;1838.2656
1795.87;0.58256423;-0.27164084;1198.0708;-7083.1343;-5885.0635;-3894.1855;0.0;0.0;1838.2656
1795.875;0.5825144;-0.2732713;1197.7722;-7084.0146;-5886.242;-3902.58;0.0;0.0;1838.2656
1795.88;0.58240736;-0.27402464;1197.262;-7084.2104;-5886.948;-3905.714;0.0;0.0;1838.2656
1795.885;0.58225995;-0.27388716;1196.63;-7083.784;-5887.1543;-3903.6921;0.0;0.0;1838.2656
1795.89;0.58210135;-0.2727004;1196.0133;-7082.455;-5886.442;-3895.914;0.0;0.0;1838.2656
1795.895;0.5819686;-0.27100816;1195.5518;-7081.1104;-5885.5586;-3885.6584;0.0;0.0;1838.2656
1795.9;0.5818908;-0.26901495;1195.3494;-7079.631;-5884.2812;-3874.2615;0.0;0.0;1838.2656
1795.905;0.5818862;-0.26686618;1195.4597;-7078.203;-5882.743;-3862.632;0.0;0.0;1838.2656
1795.91;0.5819599;-0.26516092;1195.8887;-7077.2417;-5881.353;-3854.086;0.0;0.0;1838.2656
1795.915;0.5821066;-0.26425606;1196.5972;-7077.0137;-5880.4165;-3850.5127;0.0;0.0;1838.2656
1795.92;0.58230656;-0.2639979;1197.4496;-7077.013;-5879.5635;-3850.7942;0.0;0.0;1838.2656
1795.925;0.58251035;-0.26502213;1198.2256;-7078.448;-5880.2227;-3857.9944;0.0;0.0;1838.2656
1795.93;0.5826598;-0.2667156;1198.709;-7080.3916;-5881.6826;-3868.3003;0.0;0.0;1838.2656
1795.935;0.5827142;-0.2684359;1198.784;-7082.0586;-5883.2744;-3877.9375;0.0;0.0;1838.2656
1795.94;0.5826669;-0.2700337;1198.4746;-7083.759;-5885.284;-3886.1301;0.0;0.0;1838.2656
1795.945;0.58254206;-0.27076995;1197.9036;-7084.7246;-5886.8213;-3889.0483;0.0;0.0;1838.2656
1795.95;0.58237827;-0.27070063;1197.2329;-7085.1343;-5887.9014;-3887.325;0.0;0.0;1838.2656
1795.955;0.582215;-0.26978323;1196.6108;-7085.0156;-5888.405;-3881.0215;0.0;0.0;1838.2656
1795.96;0.582083;-0.26776123;1196.1385;-7083.842;-5887.703;-3868.9258;0.0;0.0;1838.2656
1795.965;0.5819977;-0.2656784;1195.8829;-7083.3564;-5887.4736;-3856.9282;0.0;0.0;1838.2656
1795.97;0.58197385;-0.2628309;1195.8674;-7081.878;-5886.0107;-3841.194;0.0;0.0;1838.2656
1795.975;0.58200544;-0.26021487;1196.0664;-7081.022;-5884.9556;-3827.165;0.0;0.0;1838.2656
1795.98;0.5820825;-0.2579664;1196.4302;-7080.6865;-5884.2563;-3815.4927;0.0;0.0;1838.2656
1795.985;0.58218795;-0.25583178;1196.8567;-7080.3994;-5883.543;-3804.5737;0.0;0.0;1838.2656
1795.99;0.5822859;-0.25401828;1197.1946;-7080.635;-5883.4404;-3795.2483;0.0;0.0;1838.2656
1795.995;0.5823383;-0.25215134;1197.2719;-7080.6953;-5883.4233;-3785.1072;0.0;0.0;1838.2656
1796.0;0.5823022;-0.24992806;1196.9609;-7080.832;-5883.871;-3772.2244;0.0;0.0;1838.2656
1796.005;0.5821654;-0.24674702;1196.2463;-7080.2285;-5883.9824;-3753.2524;0.0;0.0;1838.2656
1796.01;0.5819396;-0.24212065;1195.2281;-7078.5156;-5883.2876;-3725.7026;0.0;0.0;1838.2656
1796.015;0.58166796;-0.23591551;1194.1128;-7075.6074;-5881.4946;-3689.2517;0.0;0.0;1838.2656
1796.02;0.5814105;-0.22823511;1193.1599;-7071.6675;-5878.508;-3644.9902;0.0;0.0;1838.2656
1796.025;0.5812317;-0.21969873;1192.603;-7067.455;-5874.852;-3596.7998;0.0;0.0;1838.2656
1796.03;0.58117515;-0.2106926;1192.5665;-7062.9053;-5870.339;-3547.06;0.0;0.0;1838.2656
1796.035;0.58124924;-0.20223692;1193.0237;-7059.333;-5866.3096;-3501.343;0.0;0.0;1838.2656
1796.04;0.5814253;-0.19406578;1193.8185;-7055.5396;-5861.721;-3457.8704;0.0;0.0;1838.2656
1796.045;0.5816508;-0.18715358;1194.7205;-7052.907;-5858.1865;-3421.555;0.0;0.0;1838.2656
1796.05;0.5818658;-0.18148866;1195.5004;-7051.3926;-5855.892;-3391.8738;0.0;0.0;1838.2656
1796.055;0.58202285;-0.17661627;1195.9993;-7050.3857;-5854.3867;-3366.0015;0.0;0.0;1838.2656
1796.06;0.58209753;-0.1720042;1196.1646;-7049.2666;-5853.102;-3340.8972;0.0;0.0;1838.2656
1796.065;0.5820938;-0.16772585;1196.0413;-7048.452;-5852.411;-3317.0564;0.0;0.0;1838.2656
1796.07;0.58203286;-0.16339524;1195.731;-7047.5674;-5851.8364;-3292.5535;0.0;0.0;1838.2656
1796.075;0.58194405;-0.1587218;1195.3589;-7046.2744;-5850.9155;-3266.0364;0.0;0.0;1838.2656
1796.08;0.5818596;-0.1534897;1195.0393;-7044.1143;-5849.075;-3236.5432;0.0;0.0;1838.2656
1796.085;0.58180076;-0.14846745;1194.8672;-7042.1455;-5847.2783;-3208.5022;0.0;0.0;1838.2656
1796.09;0.5817913;-0.14342979;1194.9167;-7039.945;-5845.0283;-3180.8196;0.0;0.0;1838.2656
1796.095;0.5818433;-0.13912928;1195.2598;-7038.4463;-5843.1865;-3157.7893;0.0;0.0;1838.2656
1796.1;0.5819771;-0.13565223;1195.9302;-7037.4727;-5841.5425;-3139.9548;0.0;0.0;1838.2656
