time;temperature;pressure;kinetic_energy;potential_energy;total_energy;virial;msd;diffusion;volume
710.005;1.0170585;0.8759194;2090.129;-6589.242;-4499.1133;650.2599;0.0;0.0;1838.2656
710.01;1.017502;0.8769748;2091.8545;-6590.091;-4498.2363;652.6289;0.0;0.0;1838.2656
710.015;1.0178759;0.87624425;2093.17;-6592.1865;-4499.0166;645.96924;0.0;0.0;1838.2656
710.02;1.0181038;0.8740163;2093.8325;-6595.633;-4501.8003;632.3572;0.0;0.0;1838.2656
710.025;1.018152;0.87174433;2093.7324;-6598.597;-4504.8647;620.02795;0.0;0.0;1838.2656
710.03;1.0180086;0.8701898;2092.8691;-6600.6304;-4507.761;613.18176;0.0;0.0;1838.2656
710.035;1.0176967;0.87037134;2091.4255;-6600.677;-4509.251;617.0702;0.0;0.0;1838.2656
710.04;1.0172926;0.8720903;2089.7551;-6599.8623;-4510.1074;629.89056;0.0;0.0;1838.2656
710.045;1.0168929;0.87604773;2088.225;-6596.9395;-4508.7144;654.7752;0.0;0.0;1838.2656
710.05;1.0165724;0.8812857;2087.0938;-6593.2485;-4506.155;685.92413;0.0;0.0;1838.2656
710.055;1.0163684;0.8873316;2086.3848;-6589.1787;-4502.794;720.68414;0.0;0.0;1838.2656
710.06;1.0162429;0.8941982;2085.8796;-6584.3037;-4498.424;759.56195;0.0;0.0;1838.2656
710.065;1.0161211;0.9021556;2085.2334;-6578.243;-4493.01;804.73804;0.0;0.0;1838.2656
710.07;1.0159191;0.9108889;2084.215;-6571.4834;-4487.2686;854.937;0.0;0.0;1838.2656
710.075;1.0156264;0.92111397;2082.9077;-6563.5264;-4480.6187;913.94086;0.0;0.0;1838.2656
710.08;1.0153109;0.9332825;2081.6655;-6553.6436;-4471.978;983.5323;0.0;0.0;1838.2656
710.085;1.0150828;0.94593465;2080.9438;-6543.623;-4462.679;1054.7496;0.0;0.0;1838.2656
710.09;1.0150466;0.95838284;2081.1177;-6534.129;-4453.011;1123.0513;0.0;0.0;1838.2656
710.095;1.015267;0.9695787;2082.3838;-6525.7964;-4443.4126;1182.262;0.0;0.0;1838.2656
710.1;1.0157573;0.97836906;2084.6946;-6519.21;-4434.5156;1226.1176;0.0;0.0;1838.2656
710.105;1.0164633;0.9829984;2087.7947;-6516.244;-4428.449;1245.447;0.0;0.0;1838.2656
710.11;1.0173;0.9832804;2091.2686;-6516.6587;-4425.39;1240.0546;0.0;0.0;1838.2656
710.115;1.0181441;0.9791353;2094.6228;-6520.3184;-4425.6953;1210.4866;0.0;0.0;1838.2656
710.12;1.018887;0.97113;2097.445;-6526.6445;-4429.199;1160.6947;0.0;0.0;1838.2656
710.125;1.019447;0.9598834;2099.5005;-6535.2217;-4435.721;1094.5609;0.0;0.0;1838.2656
710.13;1.019806;0.9466022;2100.7368;-6545.156;-4444.419;1018.8454;0.0;0.0;1838.2656
710.135;1.0199678;0.9324939;2101.2065;-6555.4043;-4454.1978;940.10144;0.0;0.0;1838.2656
710.14;1.0199606;0.9182677;2101.0156;-6565.782;-4464.7666;862.0287;0.0;0.0;1838.2656
710.145;1.019808;0.90484977;2100.249;-6575.454;-4475.205;789.5646;0.0;0.0;1838.2656
710.15;1.0195268;0.8936584;2098.9248;-6582.9746;-4484.05;730.495;0.0;0.0;1838.2656
710.155;1.0191103;0.884753;2097.0337;-6588.988;-4491.954;685.1657;0.0;0.0;1838.2656
710.16;1.0185637;0.8788467;2094.6436;-6592.9883;-4498.3447;657.3738;0.0;0.0;1838.2656
710.165;1.0179228;0.8768962;2091.9272;-6593.6514;-4501.724;652.04987;0.0;0.0;1838.2656
710.17;1.0172421;0.8784603;2089.165;-6592.287;-4503.122;666.2;0.0;0.0;1838.2656
710.175;1.016605;0.8840576;2086.6675;-6587.7666;-4501.099;702.0631;0.0;0.0;1838.2656
710.18;1.0160736;0.89232063;2084.6177;-6582.038;-4497.4204;751.7316;0.0;0.0;1838.2656
710.185;1.0156704;0.9033483;2083.0996;-6574.0586;-4490.959;815.58344;0.0;0.0;1838.2656
710.19;1.0154098;0.9160287;2082.1963;-6565.203;-4483.007;887.3194;0.0;0.0;1838.2656
710.195;1.0153182;0.9293177;2082.038;-6556.2773;-4474.2393;960.9223;0.0;0.0;1838.2656
710.2;1.0154214;0.94237924;2082.6516;-6547.714;-4465.0625;1031.7268;0.0;0.0;1838.2656
710.205;1.015686;0.9537334;2083.82;-6541.0713;-4457.251;1092.0059;0.0;0.0;1838.2656
710.21;1.0160341;0.9637255;2085.2126;-6535.576;-4450.3633;1144.3251;0.0;0.0;1838.2656
710.215;1.0163909;0.97171086;2086.643;-6531.699;-4445.056;1185.502;0.0;0.0;1838.2656
710.22;1.0167522;0.97776186;2088.157;-6529.3457;-4441.1885;1215.844;0.0;0.0;1838.2656
710.225;1.0171502;0.981644;2089.853;-6528.5923;-4438.7393;1233.8611;0.0;0.0;1838.2656
710.23;1.0175909;0.98320895;2091.6648;-6529.578;-4437.913;1238.8679;0.0;0.0;1838.2656
710.235;1.0180225;0.9828928;2093.2852;-6531.7266;-4438.4414;1233.8839;0.0;0.0;1838.2656
710.24;1.0183443;0.9806576;2094.3254;-6535.479;-4441.1533;1219.4766;0.0;0.0;1838.2656
710.245;1.018476;0.9778456;2094.5278;-6539.3525;-4444.8247;1203.5643;0.0;0.0;1838.2656
710.25;1.0183862;0.9754246;2093.869;-6542.633;-4448.7637;1191.5308;0.0;0.0;1838.2656
710.255;1.0181093;0.9744809;2092.5703;-6544.3477;-4451.7773;1188.9236;0.0;0.0;1838.2656
710.26;1.0177317;0.975189;2091.047;-6544.717;-4453.67;1195.875;0.0;0.0;1838.2656
710.265;1.0173744;0.9774874;2089.8154;-6543.861;-4454.0454;1211.0135;0.0;0.0;1838.2656
710.27;1.0171582;0.980823;2089.231;-6542.0713;-4452.8403;1230.5778;0.0;0.0;1838.2656
710.275;1.0171152;0.9837736;2089.2898;-6541.035;-4451.745;1246.7319;0.0;0.0;1838.2656
710.28;1.0172004;0.9862575;2089.8389;-6540.0967;-4450.258;1259.3319;0.0;0.0;1838.2656
710.285;1.0173944;0.9874778;2090.8687;-6539.9014;-4449.0327;1264.0021;0.0;0.0;1838.2656
710.29;1.0177174;0.9863757;2092.4963;-6541.63;-4449.134;1254.669;0.0;0.0;1838.2656
710.295;1.018197;0.9824438;2094.6616;-6545.584;-4450.9224;1228.6548;0.0;0.0;1838.2656
710.3;1.0187554;0.9752411;2096.919;-6552.201;-4455.282;1184.419;0.0;0.0;1838.2656
710.305;1.0192428;0.96555245;2098.5986;-6560.216;-4461.617;1127.6283;0.0;0.0;1838.2656
710.31;1.0194876;0.95437187;2099.1182;-6568.962;-4469.8438;1064.9305;0.0;0.0;1838.2656
710.315;1.019403;0.9438565;2098.331;-6576.3994;-4478.0684;1008.5145;0.0;0.0;1838.2656
710.32;1.0190392;0.93481433;2096.6729;-6582.4814;-4485.8086;961.9655;0.0;0.0;1838.2656
710.325;1.0185741;0.9278898;2094.9043;-6586.7114;-4491.807;927.3154;0.0;0.0;1838.2656
710.33;1.0181916;0.9229457;2093.652;-6589.5967;-4495.9443;902.55383;0.0;0.0;1838.2656
710.335;1.0179888;0.91940254;2093.0662;-6591.3647;-4498.299;884.1859;0.0;0.0;1838.2656
710.34;1.0179088;0.91632956;2092.7358;-6593.3105;-4500.5747;867.8996;0.0;0.0;1838.2656
710.345;1.0177971;0.91404784;2092.0137;-6594.996;-4502.9824;856.76086;0.0;0.0;1838.2656
710.35;1.01751;0.91360325;2090.4897;-6594.892;-4504.4023;857.3569;0.0;0.0;1838.2656
710.355;1.0170196;0.91590476;2088.2598;-6592.648;-4504.388;874.5093;0.0;0.0;1838.2656
710.36;1.0164195;0.92103076;2085.7642;-6588.339;-4502.5747;907.76935;0.0;0.0;1838.2656
710.365;1.0158365;0.92909974;2083.5261;-6581.509;-4497.9824;956.7441;0.0;0.0;1838.2656
710.37;1.0153956;0.9394102;2082.0493;-6572.7124;-4490.663;1016.5579;0.0;0.0;1838.2656
710.375;1.0152034;0.9499083;2081.6416;-6564.1514;-4482.51;1075.2681;0.0;0.0;1838.2656
710.38;1.0152836;0.9597441;2082.292;-6555.944;-4473.652;1128.2098;0.0;0.0;1838.2656
710.385;1.0155936;0.9674822;2083.817;-6549.0674;-4465.2505;1167.834;0.0;0.0;1838.2656
710.39;1.0160859;0.9721479;2086.0679;-6544.431;-4458.3633;1189.0623;0.0;0.0;1838.2656
710.395;1.0167358;0.97261596;2088.9382;-6542.9897;-4454.052;1185.903;0.0;0.0;1838.2656
710.4;1.0175065;0.96841353;2092.1943;-6544.8203;-4452.626;1156.2153;0.0;0.0;1838.2656
710.405;1.0183053;0.9599122;2095.3572;-6549.538;-4454.1807;1103.0062;0.0;0.0;1838.2656
710.41;1.0189879;0.94778115;2097.887;-6556.289;-4458.4023;1031.0465;0.0;0.0;1838.2656
710.415;1.0194508;0.9325426;2099.488;-6565.325;-4465.837;943.8072;0.0;0.0;1838.2656
710.42;1.0196767;0.916129;2100.1987;-6574.6133;-4474.4146;851.8678;0.0;0.0;1838.2656
710.425;1.019714;0.89893615;2100.1985;-6584.56;-4484.3613;757.05347;0.0;0.0;1838.2656
710.43;1.0196022;0.8824569;2099.626;-6593.6865;-4494.0605;667.31854;0.0;0.0;1838.2656
710.435;1.0193726;0.86729383;2098.59;-6601.881;-4503.291;585.7691;0.0;0.0;1838.2656
710.44;1.0190499;0.8537717;2097.201;-6608.7627;-4511.5615;513.97565;0.0;0.0;1838.2656
710.445;1.018661;0.84290814;2095.5435;-6613.3535;-4517.81;457.38022;0.0;0.0;1838.2656
710.45;1.0182214;0.8341044;2093.666;-6617.1104;-4523.4443;412.58444;0.0;0.0;1838.2656
710.455;1.017741;0.8284524;2091.7036;-6618.2744;-4526.571;385.3394;0.0;0.0;1838.2656
710.46;1.0172845;0.82546294;2089.9814;-6617.827;-4527.8457;372.29752;0.0;0.0;1838.2656
710.465;1.0169448;0.8246693;2088.8606;-6615.8843;-4527.0234;370.16266;0.0;0.0;1838.2656
710.47;1.0167829;0.8251172;2088.413;-6613.8086;-4525.3955;373.5275;0.0;0.0;1838.2656
710.475;1.0167452;0.8262443;2088.249;-6611.825;-4523.576;380.07153;0.0;0.0;1838.2656
710.48;1.0166833;0.8284272;2087.7532;-6609.3896;-4521.6367;393.1014;0.0;0.0;1838.2656
710.485;1.0164596;0.83275414;2086.4888;-6605.1523;-4518.6636;419.4924;0.0;0.0;1838.2656
710.49;1.0160242;0.8396552;2084.37;-6599.259;-4514.8887;461.78766;0.0;0.0;1838.2656
710.495;1.0154067;0.8503988;2081.6475;-6590.1934;-4508.546;526.4817;0.0;0.0;1838.2656
710.5;1.0147151;0.8648297;2078.7634;-6578.54;-4499.7764;611.8333;0.0;0.0;1838.2656
710.505;1.0140672;0.88259405;2076.2817;-6564.492;-4488.2104;714.76355;0.0;0.0;1838.2656
710.51;1.0136247;0.90273947;2074.9194;-6548.7793;-4473.86;828.5859;0.0;0.0;1838.2656
710.515;1.0135765;0.9227809;2075.4814;-6533.5874;-4458.106;937.98615;0.0;0.0;1838.2656
710.52;1.014109;0.93971074;2078.621;-6521.669;-4443.048;1025.0717;0.0;0.0;1838.2656
710.525;1.0152997;0.9501777;2084.2126;-6515.6606;-4431.448;1071.6118;0.0;0.0;1838.2656
710.53;1.0169297;0.9522738;2090.9075;-6516.639;-4425.7314;1069.7816;0.0;0.0;1838.2656
710.535;1.0185165;0.9467345;2096.7346;-6523.015;-4426.2803;1027.5793;0.0;0.0;1838.2656
710.54;1.0196257;0.9352328;2100.4473;-6533.503;-4433.0557;956.7246;0.0;0.0;1838.2656
710.545;1.0201702;0.9206356;2102.12;-6545.4414;-4443.3213;872.8782;0.0;0.0;1838.2656
710.55;1.0203176;0.9049264;2102.498;-6557.3237;-4454.8257;785.4894;0.0;0.0;1838.2656
710.555;1.0202613;0.8889274;2102.2402;-6569.262;-4467.022;697.77344;0.0;0.0;1838.2656
710.56;1.0201163;0.8737011;2101.6904;-6580.185;-4478.4946;614.9032;0.0;0.0;1838.2656
710.565;1.0199313;0.859008;2100.974;-6590.88;-4489.906;535.3066;0.0;0.0;1838.2656
710.57;1.0197123;0.8456287;2100.1055;-6600.365;-4500.26;463.25934;0.0;0.0;1838.2656
710.575;1.0194587;0.8335507;2099.0752;-6609.0273;-4509.952;398.71222;0.0;0.0;1838.2656
710.58;1.0191697;0.823316;2097.915;-6616.2007;-4518.2856;344.59027;0.0;0.0;1838.2656
710.585;1.0188639;0.81476694;2096.7314;-6622.3037;-4525.5723;299.81116;0.0;0.0;1838.2656
710.59;1.0185682;0.80788565;2095.5579;-6627.6455;-4532.088;264.20956;0.0;0.0;1838.2656
710.595;1.0182596;0.8032362;2094.2114;-6631.098;-4536.8867;241.26152;0.0;0.0;1838.2656
710.6;1.017869;0.8009155;2092.4373;-6633.05;-4540.6123;232.0116;0.0;0.0;1838.2656
710.605;1.0173532;0.80200726;2090.1782;-6632.153;-4541.9746;242.5506;0.0;0.0;1838.2656
710.61;1.016743;0.8061148;2087.628;-6629.0664;-4541.4385;270.30344;0.0;0.0;1838.2656
710.615;1.0161095;0.8134963;2085.1301;-6623.647;-4538.5166;316.00665;0.0;0.0;1838.2656
710.62;1.0155545;0.8239038;2083.0835;-6615.9966;-4532.913;377.49496;0.0;0.0;1838.2656
710.625;1.0151705;0.836074;2081.871;-6607.146;-4525.275;447.03616;0.0;0.0;1838.2656
710.63;1.015044;0.8486525;2081.7769;-6598.55;-4516.773;516.59235;0.0;0.0;1838.2656
710.635;1.0152134;0.8602175;2082.872;-6590.9644;-4508.0923;578.18085;0.0;0.0;1838.2656
710.64;1.0156542;0.8694463;2084.915;-6585.6763;-4500.761;624.98956;0.0;0.0;1838.2656
710.645;1.0162501;0.87576586;2087.2974;-6582.642;-4495.3447;655.076;0.0;0.0;1838.2656
710.65;1.0168045;0.87954414;2089.208;-6581.372;-4492.164;672.0913;0.0;0.0;1838.2656
710.655;1.0171313;0.88147944;2090.0696;-6581.4443;-4491.375;681.0408;0.0;0.0;1838.2656
710.66;1.0171677;0.883457;2089.8193;-6580.786;-4490.967;692.4471;0.0;0.0;1838.2656
710.665;1.016971;0.8862107;2088.7783;-6579.2354;-4490.457;709.7152;0.0;0.0;1838.2656
710.67;1.0166475;0.89047205;2087.3613;-6576.5146;-4489.1533;736.04974;0.0;0.0;1838.2656
710.675;1.0162969;0.89636284;2085.9932;-6571.927;-4485.9336;771.27277;0.0;0.0;1838.2656
710.68;1.0160224;0.90329134;2085.0498;-6566.8467;-4481.797;811.3687;0.0;0.0;1838.2656
710.685;1.0158979;0.9106419;2084.7732;-6561.1978;-4476.425;852.4588;0.0;0.0;1838.2656
710.69;1.0159534;0.91744936;2085.2554;-6556.1836;-4470.928;889.036;0.0;0.0;1838.2656
710.695;1.0161959;0.9226058;2086.4858;-6552.5166;-4466.031;915.01184;0.0;0.0;1838.2656
710.7;1.0166047;0.92568237;2088.357;-6550.417;-4462.06;928.2364;0.0;0.0;1838.2656
710.705;1.0171397;0.9255668;2090.6748;-6550.91;-4460.2354;922.9634;0.0;0.0;1838.2656
710.71;1.0177342;0.92234933;2093.067;-6553.6733;-4460.6064;900.4355;0.0;0.0;1838.2656
710.715;1.0182686;0.91641915;2095.0635;-6558.3057;-4463.242;863.7384;0.0;0.0;1838.2656
710.72;1.0186442;0.90852106;2096.304;-6564.262;-4467.958;817.7012;0.0;0.0;1838.2656
710.725;1.018801;0.8996287;2096.6743;-6570.671;-4473.9966;767.92096;0.0;0.0;1838.2656
710.73;1.0187572;0.8909656;2096.2854;-6576.792;-4480.507;720.9234;0.0;0.0;1838.2656
710.735;1.0185548;0.88323575;2095.3076;-6581.958;-4486.6504;680.2504;0.0;0.0;1838.2656
710.74;1.0182353;0.8773985;2093.9202;-6585.463;-4491.543;650.8342;0.0;0.0;1838.2656
710.745;1.0178442;0.8731979;2092.2996;-6587.871;-4495.5713;630.91;0.0;0.0;1838.2656
710.75;1.0174212;0.87151426;2090.618;-6587.986;-4497.368;624.98816;0.0;0.0;1838.2656
710.755;1.0170157;0.8718075;2089.104;-6586.5205;-4497.4165;629.6334;0.0;0.0;1838.2656
710.76;1.0166913;0.87331176;2088.0205;-6584.3403;-4496.32;640.09576;0.0;0.0;1838.2656
710.765;1.0165093;0.87557906;2087.6052;-6581.8086;-4494.203;653.4303;0.0;0.0;1838.2656
710.77;1.0165226;0.8774877;2088.0103;-6579.6924;-4491.682;663.1462;0.0;0.0;1838.2656
710.775;1.0167391;0.87809384;2089.1987;-6578.6953;-4489.4966;664.1116;0.0;0.0;1838.2656
710.78;1.0171188;0.8764525;2090.895;-6579.5425;-4488.6475;651.6675;0.0;0.0;1838.2656
710.785;1.0175581;0.8726123;2092.6733;-6582.185;-4489.5117;626.93286;0.0;0.0;1838.2656
710.79;1.0179567;0.86676323;2094.1597;-6586.0586;-4491.899;591.704;0.0;0.0;1838.2656
710.795;1.0182427;0.8592493;2095.1633;-6591.1934;-4496.0303;548.25854;0.0;0.0;1838.2656
710.8;1.0184064;0.85055506;2095.687;-6597.1523;-4501.4653;499.26434;0.0;0.0;1838.2656
710.805;1.018465;0.84200174;2095.8335;-6602.4883;-4506.655;451.80154;0.0;0.0;1838.2656
710.81;1.018452;0.8332774;2095.7139;-6608.001;-4512.287;403.92786;0.0;0.0;1838.2656
710.815;1.0183831;0.82515705;2095.3604;-6612.992;-4517.632;359.85294;0.0;0.0;1838.2656
710.82;1.0182537;0.81776226;2094.7188;-6617.343;-4522.624;320.3552;0.0;0.0;1838.2656
710.825;1.0180424;0.811644;2093.7366;-6620.6094;-4526.873;288.57858;0.0;0.0;1838.2656
710.83;1.0177501;0.80746824;2092.4517;-6622.491;-4530.0396;268.11987;0.0;0.0;1838.2656
710.835;1.0174023;0.80495447;2091.0073;-6623.215;-4532.2075;257.14575;0.0;0.0;1838.2656
710.84;1.0170432;0.80457544;2089.5747;-6622.4727;-4532.898;257.92065;0.0;0.0;1838.2656
710.845;1.0167112;0.80639553;2088.2551;-6620.0723;-4531.8174;270.59723;0.0;0.0;1838.2656
710.85;1.0164096;0.80994564;2087.0222;-6616.621;-4529.5986;292.64142;0.0;0.0;1838.2656
710.855;1.0161176;0.8153057;2085.7637;-6612.0405;-4526.277;324.7179;0.0;0.0;1838.2656
710.86;1.0158048;0.8226305;2084.4155;-6606.1113;-4521.696;367.80923;0.0;0.0;1838.2656
710.865;1.0154785;0.8318956;2083.059;-6598.8105;-4515.7515;421.61707;0.0;0.0;1838.2656
710.87;1.0151768;0.8427418;2081.8694;-6590.6133;-4508.744;483.81113;0.0;0.0;1838.2656
710.875;1.0149477;0.8547867;2081.0513;-6581.8076;-4500.7563;551.8724;0.0;0.0;1838.2656
710.88;1.014841;0.8674127;2080.7866;-6572.5693;-4491.7827;622.03143;0.0;0.0;1838.2656
710.885;1.0148902;0.8800137;2081.2178;-6563.5625;-4482.3447;690.6612;0.0;0.0;1838.2656
710.89;1.0151258;0.89125615;2082.4385;-6555.851;-4473.4126;750.21967;0.0;0.0;1838.2656
710.895;1.0155541;0.90023404;2084.438;-6550.1523;-4465.7144;795.7319;0.0;0.0;1838.2656
710.9;1.0161508;0.90593874;2087.065;-6547.0693;-4460.0044;821.93823;0.0;0.0;1838.2656
710.905;1.0168526;0.9080129;2089.952;-6546.947;-4456.995;827.6029;0.0;0.0;1838.2656
710.91;1.0175341;0.9066069;2092.5396;-6549.234;-4456.6943;814.67395;0.0;0.0;1838.2656
710.915;1.0180506;0.9026188;2094.3088;-6553.1377;-4458.829;789.1417;0.0;0.0;1838.2656
710.92;1.0183179;0.8968627;2095.0479;-6558.0977;-4463.05;755.9197;0.0;0.0;1838.2656
710.925;1.0183413;0.89078164;2094.9175;-6563.0327;-4468.115;722.645;0.0;0.0;1838.2656
710.93;1.018209;0.8853674;2094.2842;-6566.881;-4472.5967;694.05286;0.0;0.0;1838.2656
710.935;1.0180149;0.880459;2093.5337;-6570.375;-4476.8413;668.4851;0.0;0.0;1838.2656
710.94;1.0178517;0.87623435;2093.0518;-6573.214;-4480.162;646.1511;0.0;0.0;1838.2656
710.945;1.0178047;0.872321;2093.059;-6576.131;-4483.072;624.5552;0.0;0.0;1838.2656
710.95;1.0178789;0.8679856;2093.4858;-6579.5703;-4486.0845;599.79254;0.0;0.0;1838.2656
710.955;1.0180137;0.86300886;2093.965;-6583.6797;-4489.715;571.38855;0.0;0.0;1838.2656
710.96;1.0180874;0.85805935;2094.0703;-6587.709;-4493.6387;543.88226;0.0;0.0;1838.2656
710.965;1.0180306;0.8535328;2093.6536;-6591.3438;-4497.6904;519.75275;0.0;0.0;1838.2656
710.97;1.017857;0.850067;2092.8274;-6594.0713;-4501.244;502.29233;0.0;0.0;1838.2656
710.975;1.0176116;0.84782344;2091.7407;-6596.08;-4504.3394;492.0926;0.0;0.0;1838.2656
710.98;1.0173165;0.8474764;2090.4026;-6596.4365;-4506.034;492.8551;0.0;0.0;1838.2656
710.985;1.0169516;0.84937274;2088.732;-6594.8105;-4506.0786;506.6543;0.0;0.0;1838.2656
710.99;1.0165038;0.8535311;2086.769;-6591.496;-4504.727;533.5126;0.0;0.0;1838.2656
710.995;1.0160205;0.86032456;2084.8381;-6585.911;-4501.073;574.8391;0.0;0.0;1838.2656
711.0;1.0156269;0.86895865;2083.5505;-6579.051;-4495.5;625.02954;0.0;0.0;1838.2656
711.005;1.0154912;0.87807167;2083.5178;-6571.9517;-4488.4336;675.35126;0.0;0.0;1838.2656
711.01;1.0157242;0.88537455;2085.07;-6567.0225;-4481.952;712.5208;0.0;0.0;1838.2656
711.015;1.016345;0.88928133;2088.082;-6565.109;-4477.027;728.0417;0.0;0.0;1838.2656
711.02;1.0172409;0.88858616;2091.901;-6566.996;-4475.095;716.5706;0.0;0.0;1838.2656
711.025;1.0181862;0.88295615;2095.5522;-6572.7;-4477.148;678.2193;0.0;0.0;1838.2656
711.03;1.0189404;0.8735831;2098.2095;-6580.778;-4482.5684;621.2141;0.0;0.0;1838.2656
711.035;1.0193728;0.86172485;2099.5508;-6590.522;-4490.971;553.13586;0.0;0.0;1838.2656
711.04;1.0194843;0.84951323;2099.627;-6599.7817;-4500.155;485.63892;0.0;0.0;1838.2656
711.045;1.0193112;0.8376801;2098.6191;-6608.714;-4510.0947;422.39728;0.0;0.0;1838.2656
711.05;1.0189109;0.828206;2096.7617;-6615.4517;-4518.69;373.8646;0.0;0.0;1838.2656
711.055;1.0183464;0.8215642;2094.287;-6619.749;-4525.462;342.18546;0.0;0.0;1838.2656
711.06;1.0176684;0.8188953;2091.4375;-6620.5596;-4529.122;333.16623;0.0;0.0;1838.2656
711.065;1.016947;0.81974113;2088.4915;-6618.825;-4530.334;343.72302;0.0;0.0;1838.2656
711.07;1.0162479;0.8244108;2085.7505;-6614.1753;-4528.425;374.9571;0.0;0.0;1838.2656
711.075;1.0156521;0.8319353;2083.5244;-6607.5957;-4524.0713;420.90536;0.0;0.0;1838.2656
711.08;1.0152245;0.8416227;2082.061;-6599.63;-4517.569;477.2562;0.0;0.0;1838.2656
711.085;1.0150136;0.85230017;2081.5298;-6591.27;-4509.74;537.20276;0.0;0.0;1838.2656
711.09;1.0150452;0.8628512;2082.0264;-6583.2593;-4501.233;594.39636;0.0;0.0;1838.2656
711.095;1.0153302;0.8717366;2083.505;-6576.833;-4493.328;640.4406;0.0;0.0;1838.2656
711.1;1.0158217;0.87815815;2085.7422;-6572.6396;-4486.8975;671.37946;0.0;0.0;1838.2656
711.105;1.0164458;0.88126415;2088.3357;-6571.251;-4482.915;683.32153;0.0;0.0;1838.2656
711.11;1.017073;0.88135517;2090.779;-6572.084;-4481.3047;678.9367;0.0;0.0;1838.2656
711.115;1.0175898;0.8790489;2092.6143;-6574.5547;-4481.9404;662.5474;0.0;0.0;1838.2656
711.12;1.0178975;0.8751074;2093.5117;-6578.0127;-4484.501;639.01605;0.0;0.0;1838.2656
711.125;1.0179508;0.8708093;2093.436;-6581.363;-4487.927;615.46436;0.0;0.0;1838.2656
711.13;1.017806;0.866967;2092.7898;-6584.126;-4491.336;595.56744;0.0;0.0;1838.2656
711.135;1.0176206;0.8637132;2092.2183;-6586.504;-4494.2856;578.76624;0.0;0.0;1838.2656
711.14;1.017543;0.8606974;2092.2117;-6588.7285;-4496.5166;562.1481;0.0;0.0;1838.2656
711.145;1.0176411;0.8571244;2092.889;-6591.691;-4498.802;541.0892;0.0;0.0;1838.2656
711.15;1.0178853;0.8527451;2094.0283;-6594.952;-4500.924;514.6595;0.0;0.0;1838.2656
711.155;1.0181842;0.84674096;2095.195;-6599.9365;-4504.741;479.21417;0.0;0.0;1838.2656
711.16;1.0184094;0.8396015;2095.8257;-6606.195;-4510.369;438.5806;0.0;0.0;1838.2656
