time;temperature;pressure;kinetic_energy;potential_energy;total_energy;virial;msd;diffusion;volume
1150.005;0.84002775;0.4980281;1724.5011;-6743.3125;-5018.8115;-702.47845;0.0;0.0;1838.2656
1150.01;0.84039736;0.5028329;1726.2073;-6741.1953;-5014.9883;-679.39343;0.0;0.0;1838.2656
1150.015;0.84088016;0.5053805;1728.1287;-6740.5737;-5012.4453;-669.18634;0.0;0.0;1838.2656
1150.02;0.8413128;0.5058908;1729.6252;-6741.5176;-5011.8926;-669.3654;0.0;0.0;1838.2656
1150.025;0.8415659;0.5053198;1730.3507;-6742.916;-5012.5654;-673.96545;0.0;0.0;1838.2656
1150.03;0.8416233;0.5040689;1730.368;-6744.9194;-5014.5513;-680.8983;0.0;0.0;1838.2656
1150.035;0.84154385;0.50335616;1729.9252;-6746.4146;-5016.4893;-683.94336;0.0;0.0;1838.2656
1150.04;0.84139067;0.5035701;1729.2544;-6746.9756;-5017.721;-681.42194;0.0;0.0;1838.2656
1150.045;0.84120995;0.50455475;1728.516;-6747.015;-5018.499;-674.515;0.0;0.0;1838.2656
1150.05;0.8410321;0.50676304;1727.8293;-6746.0425;-5018.213;-660.9635;0.0;0.0;1838.2656
1150.055;0.84088355;0.50989205;1727.2798;-6744.258;-5016.978;-642.60864;0.0;0.0;1838.2656
1150.06;0.840775;0.5134379;1726.8867;-6742.2705;-5015.384;-622.26764;0.0;0.0;1838.2656
1150.065;0.84070164;0.51739854;1726.645;-6740.125;-5013.48;-599.94214;0.0;0.0;1838.2656
1150.07;0.84066457;0.52150595;1726.5231;-6737.979;-5011.456;-577.0468;0.0;0.0;1838.2656
1150.075;0.8406449;0.5259746;1726.4491;-6735.2676;-5008.8184;-552.25525;0.0;0.0;1838.2656
1150.08;0.8406258;0.53039604;1726.3359;-6732.759;-5006.423;-527.6453;0.0;0.0;1838.2656
1150.085;0.8405842;0.5349242;1726.105;-6730.08;-5003.975;-502.2115;0.0;0.0;1838.2656
1150.09;0.8405061;0.5395887;1725.6923;-6727.2676;-5001.575;-475.66254;0.0;0.0;1838.2656
1150.095;0.84037787;0.54501206;1725.06;-6723.8164;-4998.7563;-444.48947;0.0;0.0;1838.2656
1150.1;0.8402007;0.5511655;1724.27;-6719.4854;-4995.2153;-408.97412;0.0;0.0;1838.2656
1150.105;0.84001195;0.5581568;1723.5355;-6714.069;-4990.533;-368.94965;0.0;0.0;1838.2656
1150.11;0.83988243;0.56535333;1723.1763;-6708.587;-4985.4106;-328.5438;0.0;0.0;1838.2656
1150.115;0.83989656;0.57181084;1723.5094;-6704.007;-4980.4976;-293.598;0.0;0.0;1838.2656
1150.12;0.8401137;0.5769992;1724.7217;-6700.256;-4975.534;-267.41016;0.0;0.0;1838.2656
1150.125;0.8405504;0.57980174;1726.7618;-6698.2617;-4971.5;-256.035;0.0;0.0;1838.2656
1150.13;0.84114295;0.5794039;1729.2305;-6698.6436;-4969.413;-263.16614;0.0;0.0;1838.2656
1150.135;0.8417429;0.5758861;1731.4467;-6701.4976;-4970.051;-286.99866;0.0;0.0;1838.2656
1150.14;0.842169;0.57000196;1732.7983;-6705.6445;-4972.846;-322.15164;0.0;0.0;1838.2656
1150.145;0.842331;0.56314003;1733.1414;-6710.333;-4977.1914;-360.67975;0.0;0.0;1838.2656
1150.15;0.8422801;0.5562416;1732.8274;-6714.3247;-4981.497;-398.09564;0.0;0.0;1838.2656
1150.155;0.8421398;0.54989856;1732.282;-6717.751;-4985.4688;-431.9852;0.0;0.0;1838.2656
1150.16;0.8419841;0.5439039;1731.7097;-6720.85;-4989.1406;-463.9;0.0;0.0;1838.2656
1150.165;0.8418326;0.5383477;1731.1573;-6723.666;-4992.509;-493.43625;0.0;0.0;1838.2656
1150.17;0.84169513;0.5334967;1730.7384;-6725.6045;-4994.866;-519.3509;0.0;0.0;1838.2656
1150.175;0.84162295;0.52880895;1730.6616;-6727.6255;-4996.964;-545.04913;0.0;0.0;1838.2656
1150.18;0.8416621;0.5234987;1731.0244;-6730.335;-4999.3105;-575.0597;0.0;0.0;1838.2656
1150.185;0.84180284;0.5173802;1731.742;-6733.835;-5002.093;-610.23724;0.0;0.0;1838.2656
1150.19;0.84200484;0.5104532;1732.5963;-6737.744;-5005.148;-650.14685;0.0;0.0;1838.2656
1150.195;0.8421976;0.50270295;1733.3025;-6742.1514;-5008.8486;-694.3004;0.0;0.0;1838.2656
1150.2;0.84231377;0.49414614;1733.6211;-6747.517;-5013.896;-742.12665;0.0;0.0;1838.2656
1150.205;0.84231246;0.4857141;1733.4556;-6752.615;-5019.1597;-788.2965;0.0;0.0;1838.2656
1150.21;0.8421959;0.47788414;1732.8861;-6757.1616;-5024.2754;-830.3383;0.0;0.0;1838.2656
1150.215;0.84200823;0.47102225;1732.1353;-6760.9927;-5028.8574;-866.67847;0.0;0.0;1838.2656
1150.22;0.84181374;0.46494636;1731.4308;-6764.5293;-5033.0986;-898.7768;0.0;0.0;1838.2656
1150.225;0.84165;0.46018115;1730.8334;-6766.7295;-5035.896;-923.86127;0.0;0.0;1838.2656
1150.23;0.84149903;0.45635918;1730.2094;-6768.427;-5038.2173;-943.6905;0.0;0.0;1838.2656
1150.235;0.8413131;0.45361018;1729.4038;-6769.3535;-5039.9497;-957.2396;0.0;0.0;1838.2656
1150.24;0.8410746;0.45228624;1728.4045;-6769.034;-5040.63;-962.5423;0.0;0.0;1838.2656
1150.245;0.84080607;0.4525992;1727.3757;-6767.5;-5040.124;-958.75885;0.0;0.0;1838.2656
1150.25;0.84057015;0.45379674;1726.5496;-6765.497;-5038.9473;-950.5022;0.0;0.0;1838.2656
1150.255;0.8404121;0.45558852;1726.0723;-6763.6045;-5037.532;-939.66644;0.0;0.0;1838.2656
1150.26;0.8403532;0.45798194;1725.9712;-6761.0034;-5035.032;-926.2651;0.0;0.0;1838.2656
1150.265;0.84037757;0.46050227;1726.1641;-6758.348;-5032.184;-912.7517;0.0;0.0;1838.2656
1150.27;0.8404605;0.46231923;1726.5514;-6756.4697;-5029.9185;-903.5061;0.0;0.0;1838.2656
1150.275;0.84057987;0.4636806;1727.0814;-6754.8633;-5027.7817;-897.05853;0.0;0.0;1838.2656
1150.28;0.8407348;0.46383652;1727.7983;-6754.565;-5026.7666;-897.63245;0.0;0.0;1838.2656
1150.285;0.8409453;0.46304163;1728.7388;-6754.725;-5025.9863;-903.897;0.0;0.0;1838.2656
1150.29;0.84120107;0.460784;1729.795;-6756.2363;-5026.4414;-918.4599;0.0;0.0;1838.2656
1150.295;0.84145296;0.4571541;1730.7537;-6758.743;-5027.9893;-940.39545;0.0;0.0;1838.2656
1150.3;0.8416422;0.45250118;1731.3391;-6761.8857;-5030.547;-967.22614;0.0;0.0;1838.2656
1150.305;0.8417007;0.44740576;1731.3613;-6765.0103;-5033.649;-995.3707;0.0;0.0;1838.2656
1150.31;0.8416186;0.44286364;1730.908;-6767.252;-5036.3438;-1019.51294;0.0;0.0;1838.2656
1150.315;0.8414621;0.4387748;1730.2831;-6768.9355;-5038.6523;-1040.8124;0.0;0.0;1838.2656
1150.32;0.84131473;0.43520865;1729.7922;-6770.0615;-5040.2695;-1059.4972;0.0;0.0;1838.2656
1150.325;0.8412349;0.4316502;1729.5964;-6771.2754;-5041.6787;-1078.7297;0.0;0.0;1838.2656
1150.33;0.84123325;0.42767397;1729.6938;-6772.794;-5043.1;-1100.8527;0.0;0.0;1838.2656
1150.335;0.84129477;0.42347473;1730.023;-6774.181;-5044.158;-1124.6688;0.0;0.0;1838.2656
1150.34;0.8414063;0.41827276;1730.5542;-6776.47;-5045.916;-1154.4191;0.0;0.0;1838.2656
1150.345;0.8415667;0.41224596;1731.2855;-6779.334;-5048.0483;-1189.1183;0.0;0.0;1838.2656
1150.35;0.84177125;0.40490577;1732.1533;-6783.285;-5051.132;-1231.3336;0.0;0.0;1838.2656
1150.355;0.84198374;0.39661992;1732.9535;-6787.828;-5054.8745;-1278.6287;0.0;0.0;1838.2656
1150.36;0.8421376;0.38764688;1733.4199;-6792.8896;-5059.4697;-1329.046;0.0;0.0;1838.2656
1150.365;0.8421754;0.378553;1733.3641;-6797.8906;-5064.5264;-1379.0853;0.0;0.0;1838.2656
1150.37;0.8420734;0.3703332;1732.7927;-6802.3193;-5069.5264;-1423.2732;0.0;0.0;1838.2656
1150.375;0.8418708;0.3629363;1731.9177;-6806.2437;-5074.326;-1462.3154;0.0;0.0;1838.2656
1150.38;0.8416333;0.35715604;1730.9707;-6808.9585;-5077.988;-1492.2985;0.0;0.0;1838.2656
1150.385;0.84140396;0.35289073;1730.0642;-6810.7344;-5080.67;-1514.0077;0.0;0.0;1838.2656
1150.39;0.8411858;0.35040116;1729.1187;-6811.1943;-5082.0757;-1525.8461;0.0;0.0;1838.2656
1150.395;0.8409335;0.34963349;1727.9491;-6810.6494;-5082.7;-1527.7406;0.0;0.0;1838.2656
1150.4;0.84060663;0.35105398;1726.4136;-6808.595;-5082.1816;-1516.8358;0.0;0.0;1838.2656
1150.405;0.8401866;0.3551889;1724.5312;-6804.5005;-5079.969;-1490.2677;0.0;0.0;1838.2656
1150.41;0.83971435;0.36190248;1722.5563;-6798.7803;-5076.224;-1449.294;0.0;0.0;1838.2656
1150.415;0.8392838;0.37093234;1720.9626;-6791.4023;-5070.4395;-1396.3087;0.0;0.0;1838.2656
1150.42;0.839036;0.38114476;1720.3557;-6783.6426;-5063.287;-1338.7755;0.0;0.0;1838.2656
1150.425;0.8391167;0.391189;1721.2699;-6776.3267;-5055.0566;-1285.2118;0.0;0.0;1838.2656
1150.43;0.83960897;0.398603;1723.7877;-6771.548;-5047.7603;-1249.3608;0.0;0.0;1838.2656
1150.435;0.84041834;0.40203428;1727.2043;-6770.3193;-5043.115;-1237.2714;0.0;0.0;1838.2656
1150.44;0.84126645;0.4010532;1730.4012;-6772.6987;-5042.2974;-1249.0757;0.0;0.0;1838.2656
1150.445;0.841909;0.3970892;1732.647;-6776.798;-5044.151;-1275.4276;0.0;0.0;1838.2656
1150.45;0.84228003;0.3910535;1733.937;-6782.163;-5048.226;-1311.2933;0.0;0.0;1838.2656
1150.455;0.84246564;0.3836332;1734.5842;-6788.512;-5053.9277;-1353.5093;0.0;0.0;1838.2656
1150.46;0.8425278;0.3759201;1734.759;-6794.798;-5060.039;-1396.3951;0.0;0.0;1838.2656
1150.465;0.8424843;0.36817783;1734.4985;-6800.959;-5066.4604;-1438.5712;0.0;0.0;1838.2656
1150.47;0.8423395;0.36157656;1733.8545;-6805.865;-5072.0107;-1473.6877;0.0;0.0;1838.2656
1150.475;0.8421207;0.35568795;1732.9331;-6810.3574;-5077.4243;-1504.3195;0.0;0.0;1838.2656
1150.48;0.8418525;0.35115394;1731.8379;-6813.864;-5082.026;-1527.1332;0.0;0.0;1838.2656
1150.485;0.8415623;0.34828517;1730.6561;-6816.0225;-5085.366;-1540.5903;0.0;0.0;1838.2656
1150.49;0.84126514;0.3468967;1729.5005;-6817.1987;-5087.698;-1545.9362;0.0;0.0;1838.2656
1150.495;0.841002;0.3468623;1728.5208;-6817.4873;-5088.967;-1544.1665;0.0;0.0;1838.2656
1150.5;0.8408;0.34796578;1727.8065;-6817.0044;-5089.1978;-1536.6525;0.0;0.0;1838.2656
1150.505;0.8406685;0.3496759;1727.3591;-6816.234;-5088.875;-1526.3268;0.0;0.0;1838.2656
1150.51;0.84059185;0.3521302;1727.0977;-6814.839;-5087.741;-1512.2687;0.0;0.0;1838.2656
1150.515;0.84054404;0.35462606;1726.9176;-6813.8438;-5086.9263;-1498.1445;0.0;0.0;1838.2656
1150.52;0.84049976;0.35743117;1726.7356;-6812.669;-5085.9336;-1482.3109;0.0;0.0;1838.2656
1150.525;0.8404433;0.36059436;1726.4437;-6811.2583;-5084.8145;-1464.2827;0.0;0.0;1838.2656
1150.53;0.840338;0.36478323;1725.934;-6808.771;-5082.837;-1440.1625;0.0;0.0;1838.2656
1150.535;0.84017533;0.36963844;1725.2128;-6805.8594;-5080.6465;-1411.9446;0.0;0.0;1838.2656
1150.54;0.83997804;0.3755159;1724.4702;-6802.224;-5077.754;-1378.0465;0.0;0.0;1838.2656
1150.545;0.83982414;0.3821795;1724.0265;-6797.821;-5073.7944;-1340.4106;0.0;0.0;1838.2656
1150.55;0.8397886;0.38891584;1724.1305;-6793.549;-5069.4185;-1303.4692;0.0;0.0;1838.2656
1150.555;0.8399069;0.39500475;1724.8257;-6790.041;-5065.2153;-1271.2804;0.0;0.0;1838.2656
1150.56;0.84015155;0.39970127;1725.9423;-6787.9707;-5062.0283;-1247.6133;0.0;0.0;1838.2656
1150.565;0.84046096;0.40302876;1727.1987;-6786.8516;-5059.653;-1231.7756;0.0;0.0;1838.2656
1150.57;0.84076136;0.40480167;1728.3604;-6787.0547;-5058.6943;-1224.3217;0.0;0.0;1838.2656
1150.575;0.8410208;0.40530023;1729.3599;-6788.25;-5058.89;-1223.5713;0.0;0.0;1838.2656
1150.58;0.8412428;0.40470627;1730.2456;-6790.2217;-5059.976;-1228.6184;0.0;0.0;1838.2656
1150.585;0.841444;0.4032221;1730.9988;-6792.8105;-5061.8115;-1238.3096;0.0;0.0;1838.2656
1150.59;0.8415864;0.40118727;1731.3665;-6796.131;-5064.7646;-1250.2666;0.0;0.0;1838.2656
1150.595;0.84157676;0.3993493;1730.9413;-6799.08;-5068.1387;-1259.5522;0.0;0.0;1838.2656
1150.6;0.8413152;0.39950404;1729.3999;-6800.0464;-5070.6465;-1255.6162;0.0;0.0;1838.2656
1150.605;0.84076715;0.40271175;1726.7832;-6798.244;-5071.461;-1232.6929;0.0;0.0;1838.2656
1150.61;0.8400105;0.40985805;1723.5533;-6793.0596;-5069.5063;-1186.8228;0.0;0.0;1838.2656
1150.615;0.8392049;0.4207092;1720.3862;-6785.127;-5064.7407;-1120.6467;0.0;0.0;1838.2656
1150.62;0.83851844;0.43465135;1717.9152;-6775.0303;-5057.115;-1038.8164;0.0;0.0;1838.2656
1150.625;0.838079;0.45058566;1716.5521;-6763.446;-5046.8936;-948.2158;0.0;0.0;1838.2656
1150.63;0.837944;0.466954;1716.4622;-6751.6045;-5035.1426;-857.76794;0.0;0.0;1838.2656
1150.635;0.8381254;0.4818792;1717.6255;-6741.0156;-5023.39;-777.785;0.0;0.0;1838.2656
1150.64;0.83859175;0.49397498;1719.8966;-6732.497;-5012.6006;-715.6215;0.0;0.0;1838.2656
1150.645;0.8392938;0.5020286;1723.0142;-6727.171;-5004.1567;-677.4425;0.0;0.0;1838.2656
1150.65;0.8401424;0.5052456;1726.5615;-6725.369;-4998.8076;-666.796;0.0;0.0;1838.2656
1150.655;0.84101784;0.50359684;1730.0271;-6726.8135;-4996.786;-682.82;0.0;0.0;1838.2656
1150.66;0.8417936;0.497799;1732.9432;-6731.123;-4998.1797;-720.6261;0.0;0.0;1838.2656
1150.665;0.84238154;0.48812515;1735.0239;-6738.176;-5003.152;-778.1368;0.0;0.0;1838.2656
1150.67;0.84274226;0.47659138;1736.1742;-6746.029;-5009.8545;-844.04376;0.0;0.0;1838.2656
1150.675;0.8428815;0.46375522;1736.4631;-6754.7397;-5018.2764;-915.41046;0.0;0.0;1838.2656
1150.68;0.842832;0.4512641;1736.0547;-6762.628;-5026.573;-983.4794;0.0;0.0;1838.2656
1150.685;0.842645;0.43957868;1735.1598;-6769.884;-5034.724;-1046.1324;0.0;0.0;1838.2656
1150.69;0.8423707;0.4295068;1733.9635;-6775.542;-5041.5786;-1099.2842;0.0;0.0;1838.2656
1150.695;0.84204584;0.4213588;1732.5758;-6779.8296;-5047.254;-1141.4434;0.0;0.0;1838.2656
1150.7;0.841685;0.41490474;1731.0432;-6783.2534;-5052.21;-1173.9711;0.0;0.0;1838.2656
1150.705;0.8412929;0.41132846;1729.37;-6783.8545;-5054.4844;-1190.347;0.0;0.0;1838.2656
1150.71;0.840871;0.4098866;1727.6119;-6783.5723;-5055.9604;-1194.7825;0.0;0.0;1838.2656
1150.715;0.84045017;0.41104496;1725.9331;-6781.34;-5055.4067;-1185.0367;0.0;0.0;1838.2656
1150.72;0.8400796;0.4142598;1724.4951;-6777.795;-5053.3;-1164.4316;0.0;0.0;1838.2656
1150.725;0.8397827;0.41941792;1723.387;-6773.2646;-5049.878;-1133.7693;0.0;0.0;1838.2656
1150.73;0.8395767;0.42577654;1722.6442;-6768.173;-5045.529;-1097.2172;0.0;0.0;1838.2656
1150.735;0.8394584;0.43323725;1722.2695;-6762.3193;-5040.05;-1055.3236;0.0;0.0;1838.2656
1150.74;0.83943117;0.44088802;1722.2587;-6756.785;-5034.5264;-1013.1095;0.0;0.0;1838.2656
1150.745;0.8394852;0.44860655;1722.5823;-6751.393;-5028.8105;-971.1906;0.0;0.0;1838.2656
1150.75;0.839617;0.4554827;1723.2288;-6747.15;-5023.921;-934.56305;0.0;0.0;1838.2656
1150.755;0.8398252;0.46173432;1724.1813;-6743.301;-5019.1196;-901.9916;0.0;0.0;1838.2656
1150.76;0.8401032;0.46658033;1725.3939;-6740.666;-5015.272;-877.6921;0.0;0.0;1838.2656
1150.765;0.84042925;0.46989927;1726.7319;-6739.435;-5012.703;-862.06476;0.0;0.0;1838.2656
1150.77;0.8407564;0.4715937;1728.0132;-6739.2983;-5011.285;-855.2829;0.0;0.0;1838.2656
1150.775;0.84104204;0.47199103;1729.0586;-6740.2026;-5011.144;-855.18256;0.0;0.0;1838.2656
1150.78;0.84124196;0.47152516;1729.6898;-6741.6787;-5011.989;-859.0141;0.0;0.0;1838.2656
1150.785;0.84131336;0.47027206;1729.7164;-6743.795;-5014.0786;-865.97797;0.0;0.0;1838.2656
1150.79;0.8412111;0.47004622;1729.0294;-6744.4233;-5015.394;-865.84937;0.0;0.0;1838.2656
1150.795;0.8409419;0.47090563;1727.7328;-6744.163;-5016.43;-858.5167;0.0;0.0;1838.2656
1150.8;0.8405653;0.47336453;1726.19;-6742.3955;-5016.2056;-841.8706;0.0;0.0;1838.2656
1150.805;0.8402053;0.47755235;1724.902;-6739.2656;-5014.364;-816.1998;0.0;0.0;1838.2656
1150.81;0.83997905;0.48257557;1724.3062;-6735.5337;-5011.2275;-787.30615;0.0;0.0;1838.2656
1150.815;0.8399712;0.48726496;1724.6724;-6732.2915;-5007.619;-762.1775;0.0;0.0;1838.2656
1150.82;0.8402114;0.49073124;1725.987;-6730.0996;-5004.1123;-745.6911;0.0;0.0;1838.2656
1150.825;0.84064007;0.49184394;1727.8408;-6730.092;-5002.251;-743.26227;0.0;0.0;1838.2656
1150.83;0.84109956;0.49097025;1729.5249;-6731.2637;-5001.739;-751.4486;0.0;0.0;1838.2656
1150.835;0.84140724;0.4886142;1730.3906;-6733.498;-5003.1074;-766.1732;0.0;0.0;1838.2656
1150.84;0.8414562;0.4859926;1730.2444;-6735.658;-5005.414;-780.3382;0.0;0.0;1838.2656
1150.845;0.8412881;0.48438323;1729.3718;-6736.662;-5007.29;-787.4685;0.0;0.0;1838.2656
1150.85;0.8410108;0.48386607;1728.229;-6736.982;-5008.753;-788.035;0.0;0.0;1838.2656
1150.855;0.8407337;0.48496106;1727.1798;-6735.8574;-5008.6777;-779.8979;0.0;0.0;1838.2656
1150.86;0.84051377;0.4870421;1726.3987;-6734.17;-5007.7715;-766.8592;0.0;0.0;1838.2656
1150.865;0.8403736;0.48972887;1725.9775;-6732.358;-5006.3804;-751.1999;0.0;0.0;1838.2656
1150.87;0.84033483;0.4923291;1726.0377;-6730.948;-5004.9106;-736.9806;0.0;0.0;1838.2656
1150.875;0.8404335;0.4945824;1726.7104;-6729.889;-5003.1787;-725.89935;0.0;0.0;1838.2656
1150.88;0.8406893;0.49567166;1727.9783;-6729.83;-5001.8516;-722.428;0.0;0.0;1838.2656
1150.885;0.8410591;0.49480614;1729.5822;-6731.617;-5002.035;-730.409;0.0;0.0;1838.2656
1150.89;0.8414518;0.4921259;1731.0792;-6734.8696;-5003.7905;-748.184;0.0;0.0;1838.2656
1150.895;0.8417455;0.4883403;1732.0404;-6738.8457;-5006.805;-770.98334;0.0;0.0;1838.2656
1150.9;0.8418666;0.48413622;1732.2506;-6743.0674;-5010.817;-794.5883;0.0;0.0;1838.2656
1150.905;0.8417988;0.48028865;1731.7241;-6747.034;-5015.31;-814.75385;0.0;0.0;1838.2656
1150.91;0.84157413;0.47800982;1730.6273;-6749.499;-5018.8716;-825.1276;0.0;0.0;1838.2656
1150.915;0.8412452;0.47740078;1729.1759;-6750.838;-5021.662;-825.5834;0.0;0.0;1838.2656
1150.92;0.84086573;0.47900575;1727.5964;-6750.2886;-5022.6924;-813.5735;0.0;0.0;1838.2656
1150.925;0.8404907;0.48258;1726.1075;-6748.318;-5022.2104;-790.88434;0.0;0.0;1838.2656
1150.93;0.84016913;0.48766014;1724.8882;-6745.397;-5020.509;-760.42975;0.0;0.0;1838.2656
1150.935;0.8399342;0.49390185;1724.0608;-6741.4883;-5017.4277;-724.3533;0.0;0.0;1838.2656
1150.94;0.83980757;0.5009256;1723.6986;-6736.802;-5013.103;-684.8942;0.0;0.0;1838.2656
1150.945;0.83980006;0.5073345;1723.864;-6732.7393;-5008.875;-649.8814;0.0;0.0;1838.2656
1150.95;0.83992565;0.5129108;1724.5469;-6729.1953;-5004.6484;-620.49506;0.0;0.0;1838.2656
1150.955;0.8401602;0.5167943;1725.6538;-6726.7983;-5001.1445;-601.2918;0.0;0.0;1838.2656
1150.96;0.8404787;0.518615;1727.0721;-6725.854;-4998.7817;-594.0878;0.0;0.0;1838.2656
1150.965;0.84084994;0.51803577;1728.6575;-6726.3984;-4997.741;-600.45294;0.0;0.0;1838.2656
1150.97;0.8412343;0.51484525;1730.2517;-6728.789;-4998.537;-621.2364;0.0;0.0;1838.2656
1150.975;0.84159565;0.5092841;1731.6929;-6732.7964;-5001.1035;-654.78754;0.0;0.0;1838.2656
1150.98;0.841894;0.5018457;1732.8367;-6737.8545;-5005.0176;-698.096;0.0;0.0;1838.2656
1150.985;0.84210235;0.49301466;1733.5942;-6743.814;-5010.2197;-748.31274;0.0;0.0;1838.2656
1150.99;0.84221;0.48366612;1733.937;-6749.7036;-5015.7666;-800.55365;0.0;0.0;1838.2656
1150.995;0.8422179;0.47385046;1733.8877;-6756.07;-5022.182;-854.58636;0.0;0.0;1838.2656
1151.0;0.8421371;0.46444526;1733.4807;-6762.1094;-5028.629;-905.64014;0.0;0.0;1838.2656
1151.005;0.8419741;0.45627093;1732.7382;-6766.783;-5034.045;-949.23474;0.0;0.0;1838.2656
1151.01;0.84173435;0.449378;1731.6841;-6770.6035;-5038.9194;-985.1397;0.0;0.0;1838.2656
1151.015;0.8414281;0.44421333;1730.4042;-6773.12;-5042.716;-1011.0621;0.0;0.0;1838.2656
1151.02;0.8410927;0.44110554;1729.092;-6774.0522;-5044.96;-1025.5765;0.0;0.0;1838.2656
1151.025;0.84079117;0.4394757;1728.0345;-6774.1533;-5046.1187;-1032.45;0.0;0.0;1838.2656
1151.03;0.84059805;0.43916845;1727.4922;-6773.399;-5045.9067;-1033.0596;0.0;0.0;1838.2656
1151.035;0.8405542;0.43887034;1727.5237;-6773.327;-5045.8037;-1034.7666;0.0;0.0;1838.2656
1151.04;0.8406304;0.4384591;1727.9198;-6773.556;-5045.636;-1037.8267;0.0;0.0;1838.2656
1151.045;0.840744;0.43775675;1728.3225;-6774.081;-5045.759;-1042.5055;0.0;0.0;1838.2656
1151.05;0.8408099;0.43706682;1728.4739;-6774.584;-5046.1104;-1046.6129;0.0;0.0;1838.2656
1151.055;0.8408014;0.43640545;1728.3315;-6775.2676;-5046.936;-1049.9756;0.0;0.0;1838.2656
1151.06;0.8407323;0.43607962;1727.9916;-6775.6416;-5047.65;-1051.0925;0.0;0.0;1838.2656
1151.065;0.84063643;0.4363616;1727.5745;-6775.3955;-5047.8213;-1048.7032;0.0;0.0;1838.2656
1151.07;0.84054035;0.43703735;1727.2095;-6775.0664;-5047.857;-1044.2467;0.0;0.0;1838.2656
1151.075;0.8404817;0.43823987;1727.0742;-6774.1133;-5047.039;-1037.3445;0.0;0.0;1838.2656
1151.08;0.84050715;0.4389232;1727.3196;-6773.7744;-5046.455;-1034.0668;0.0;0.0;1838.2656
1151.085;0.8406324;0.43910512;1727.9583;-6773.788;-5045.83;-1034.3411;0.0;0.0;1838.2656
1151.09;0.84083915;0.43811253;1728.852;-6774.7734;-5045.9214;-1041.6025;0.0;0.0;1838.2656
1151.095;0.84107274;0.436177;1729.7819;-6776.2886;-5046.507;-1054.1362;0.0;0.0;1838.2656
1151.1;0.8412824;0.43279666;1730.5421;-6779.0747;-5048.5327;-1074.2986;0.0;0.0;1838.2656
1151.105;0.84142035;0.4288091;1730.9802;-6782.1885;-5051.208;-1097.1653;0.0;0.0;1838.2656
1151.11;0.8414681;0.4248492;1731.052;-6784.8906;-5053.839;-1119.1469;0.0;0.0;1838.2656
1151.115;0.8414282;0.42072052;1730.811;-6787.997;-5057.186;-1141.4338;0.0;0.0;1838.2656
1151.12;0.84132874;0.41711634;1730.3599;-6790.8105;-5060.4507;-1160.4078;0.0;0.0;1838.2656
