time;temperature;pressure;kinetic_energy;potential_energy;total_energy;virial;msd;diffusion;volume
135.005;1.2485999;1.4370129;2566.234;-6319.1445;-3752.9106;2792.3665;0.0;0.0;1838.2656
135.01;1.2486827;1.4349979;2566.9377;-6321.881;-3754.943;2779.8467;0.0;0.0;1838.2656
135.015;1.2489644;1.4317805;2568.3726;-6325.675;-3757.3022;2759.2332;0.0;0.0;1838.2656
135.02;1.249379;1.42607;2570.1147;-6332.0957;-3761.981;2724.2566;0.0;0.0;1838.2656
135.025;1.2497666;1.4190094;2571.4148;-6339.305;-3767.8904;2682.719;0.0;0.0;1838.2656
135.03;1.2499274;1.4114777;2571.5874;-6346.5522;-3774.9648;2640.838;0.0;0.0;1838.2656
135.035;1.2497551;1.4044166;2570.44;-6353.3564;-3782.9165;2604.1924;0.0;0.0;1838.2656
135.04;1.2492893;1.4002447;2568.2827;-6357.087;-3788.8042;2585.4998;0.0;0.0;1838.2656
135.045;1.2486602;1.3988888;2565.7327;-6358.58;-3792.8474;2583.1226;0.0;0.0;1838.2656
135.05;1.2480371;1.4004503;2563.389;-6357.677;-3794.2878;2596.4216;0.0;0.0;1838.2656
135.055;1.2475282;1.4040719;2561.546;-6355.4126;-3793.8667;2620.0793;0.0;0.0;1838.2656
135.06;1.2471527;1.4096266;2560.2188;-6351.4272;-3791.2085;2653.3667;0.0;0.0;1838.2656
135.065;1.2468961;1.416024;2559.3757;-6346.79;-3787.4143;2690.3333;0.0;0.0;1838.2656
135.07;1.2467695;1.4232014;2559.152;-6341.341;-3782.1887;2730.3628;0.0;0.0;1838.2656
135.075;1.24683;1.4295396;2559.747;-6336.797;-3777.0498;2764.1265;0.0;0.0;1838.2656
135.08;1.2471008;1.434179;2561.0872;-6333.732;-3772.6448;2787.031;0.0;0.0;1838.2656
135.085;1.2475026;1.4365132;2562.8132;-6332.8906;-3770.0774;2796.452;0.0;0.0;1838.2656
135.09;1.2479429;1.4368855;2564.663;-6333.298;-3768.6348;2794.8057;0.0;0.0;1838.2656
135.095;1.2483991;1.4348949;2566.6157;-6335.665;-3769.0493;2779.9226;0.0;0.0;1838.2656
135.1;1.2488781;1.4304495;2568.5527;-6340.1396;-3771.587;2751.5327;0.0;0.0;1838.2656
135.105;1.2492863;1.4244804;2569.901;-6345.8086;-3775.9077;2715.9185;0.0;0.0;1838.2656
135.11;1.2494416;1.4178687;2570.0293;-6352.0527;-3782.0234;2679.1995;0.0;0.0;1838.2656
135.115;1.2492539;1.4126724;2568.8174;-6356.953;-3788.1357;2652.9666;0.0;0.0;1838.2656
135.12;1.248785;1.4103385;2566.5737;-6359.463;-3792.8892;2644.583;0.0;0.0;1838.2656
135.125;1.2481309;1.4113325;2563.6147;-6359.5664;-3795.9517;2655.9827;0.0;0.0;1838.2656
135.13;1.2473427;1.417209;2560.161;-6355.4365;-3795.2756;2695.2983;0.0;0.0;1838.2656
135.135;1.2464876;1.4276212;2556.6235;-6347.601;-3790.9775;2759.7942;0.0;0.0;1838.2656
135.14;1.2457198;1.4417111;2553.871;-6337.267;-3783.396;2843.0012;0.0;0.0;1838.2656
135.145;1.2453136;1.4574771;2553.067;-6326.2607;-3773.1938;2931.5564;0.0;0.0;1838.2656
135.15;1.2455224;1.4720331;2554.8445;-6316.6167;-3761.7722;3008.2747;0.0;0.0;1838.2656
135.155;1.2463181;1.4822043;2558.5034;-6311.6025;-3753.099;3057.0488;0.0;0.0;1838.2656
135.16;1.2473133;1.4881383;2562.163;-6309.3555;-3747.1924;3082.4546;0.0;0.0;1838.2656
135.165;1.2479848;1.490685;2564.013;-6309.161;-3745.1482;3092.7988;0.0;0.0;1838.2656
135.17;1.2480593;1.4923973;2563.5742;-6308.9976;-3745.4233;3103.1196;0.0;0.0;1838.2656
135.175;1.2476628;1.4957992;2561.5938;-6306.5537;-3744.96;3125.841;0.0;0.0;1838.2656
135.18;1.2470543;1.501833;2559.038;-6301.412;-3742.374;3164.2273;0.0;0.0;1838.2656
135.185;1.2464359;1.5106355;2556.6597;-6293.587;-3736.9272;3217.5283;0.0;0.0;1838.2656
135.19;1.2459656;1.5209404;2555.126;-6284.712;-3729.586;3277.4253;0.0;0.0;1838.2656
135.195;1.2458048;1.5315536;2555.1453;-6275.57;-3720.4246;3335.9163;0.0;0.0;1838.2656
135.2;1.2461103;1.5402317;2557.1216;-6268.06;-3710.9385;3379.8218;0.0;0.0;1838.2656
135.205;1.2468626;1.544573;2560.6218;-6264.552;-3703.93;3396.7622;0.0;0.0;1838.2656
135.21;1.247824;1.5440536;2564.4722;-6265.1914;-3700.7192;3386.1975;0.0;0.0;1838.2656
135.215;1.2486664;1.5395265;2567.5596;-6268.5156;-3700.956;3355.0564;0.0;0.0;1838.2656
135.22;1.249224;1.5317895;2569.5205;-6274.249;-3704.7285;3308.4675;0.0;0.0;1838.2656
135.225;1.2495273;1.5228133;2570.6245;-6280.7417;-3710.1172;3256.7568;0.0;0.0;1838.2656
135.23;1.2496947;1.5125846;2571.3306;-6288.453;-3717.1226;3198.9353;0.0;0.0;1838.2656
135.235;1.249824;1.5019732;2571.9346;-6296.413;-3724.4785;3139.2078;0.0;0.0;1838.2656
135.24;1.2499421;1.4914402;2572.3823;-6304.1562;-3731.774;3080.225;0.0;0.0;1838.2656
135.245;1.2499753;1.4811922;2572.3022;-6311.8193;-3739.517;3023.8696;0.0;0.0;1838.2656
135.25;1.2498121;1.4718778;2571.2588;-6319.0947;-3747.836;2974.5898;0.0;0.0;1838.2656
135.255;1.2493662;1.465022;2569.002;-6324.6553;-3755.6533;2941.2944;0.0;0.0;1838.2656
135.26;1.2486256;1.4624008;2565.6064;-6326.375;-3760.7686;2933.6304;0.0;0.0;1838.2656
135.265;1.247672;1.4648321;2561.6565;-6324.0103;-3762.3538;2954.938;0.0;0.0;1838.2656
135.27;1.2467368;1.4721819;2558.162;-6317.6685;-3759.5063;3002.46;0.0;0.0;1838.2656
135.275;1.2460779;1.4823673;2556.0776;-6309.711;-3753.6333;3062.799;0.0;0.0;1838.2656
135.28;1.2458702;1.4934955;2555.8594;-6301.6025;-3745.7432;3124.6055;0.0;0.0;1838.2656
135.285;1.2461141;1.5034422;2557.2217;-6294.756;-3737.5342;3176.735;0.0;0.0;1838.2656
135.29;1.2466319;1.510705;2559.3445;-6290.258;-3730.9133;3212.542;0.0;0.0;1838.2656
135.295;1.2471977;1.5152055;2561.4932;-6287.507;-3726.0137;3233.0642;0.0;0.0;1838.2656
135.3;1.2477137;1.5165883;2563.6106;-6286.996;-3723.3855;3236.4553;0.0;0.0;1838.2656
135.305;1.2482836;1.5145879;2566.3284;-6288.9097;-3722.5813;3219.9875;0.0;0.0;1838.2656
135.31;1.2490991;1.5075992;2570.1401;-6295.086;-3724.9458;3173.823;0.0;0.0;1838.2656
135.315;1.2501438;1.4949797;2574.474;-6305.789;-3731.315;3095.5613;0.0;0.0;1838.2656
135.32;1.2511117;1.4776075;2577.9287;-6319.797;-3741.8682;2992.8477;0.0;0.0;1838.2656
135.325;1.2516488;1.4575586;2579.294;-6335.051;-3755.7568;2879.5522;0.0;0.0;1838.2656
135.33;1.2515789;1.4380918;2578.1477;-6349.1816;-3771.034;2774.4883;0.0;0.0;1838.2656
135.335;1.250924;1.4216471;2574.8025;-6360.3755;-3785.573;2690.4897;0.0;0.0;1838.2656
135.34;1.2498474;1.4108617;2570.0496;-6366.4453;-3796.3958;2640.5166;0.0;0.0;1838.2656
135.345;1.2485911;1.4060961;2564.9966;-6367.7944;-3802.7979;2624.341;0.0;0.0;1838.2656
135.35;1.2474545;1.4070606;2560.8047;-6364.7305;-3803.9258;2638.0442;0.0;0.0;1838.2656
135.355;1.2466829;1.4117142;2558.4;-6359.1104;-3800.7104;2668.5173;0.0;0.0;1838.2656
135.36;1.2464473;1.4176091;2558.244;-6353.013;-3794.7693;2701.3386;0.0;0.0;1838.2656
135.365;1.2467514;1.4215508;2560.0234;-6349.3633;-3789.3398;2719.5168;0.0;0.0;1838.2656
135.37;1.2473769;1.4227834;2562.5068;-6347.718;-3785.211;2721.3474;0.0;0.0;1838.2656
135.375;1.2479228;1.4211265;2564.2034;-6348.4805;-3784.277;2708.8171;0.0;0.0;1838.2656
135.38;1.2481264;1.4185164;2564.5757;-6349.0947;-3784.519;2693.6785;0.0;0.0;1838.2656
135.385;1.2480594;1.415608;2564.3018;-6349.7725;-3785.4707;2678.1875;0.0;0.0;1838.2656
135.39;1.2480049;1.4124875;2564.433;-6350.427;-3785.9937;2660.7158;0.0;0.0;1838.2656
135.395;1.2481691;1.4084462;2565.5762;-6351.917;-3786.3408;2636.1423;0.0;0.0;1838.2656
135.4;1.2486014;1.4021232;2567.6958;-6355.421;-3787.725;2597.0332;0.0;0.0;1838.2656
135.405;1.2492009;1.3928163;2570.1675;-6361.5947;-3791.4272;2540.764;0.0;0.0;1838.2656
135.41;1.2497417;1.3809739;2572.038;-6369.8774;-3797.8394;2471.7146;0.0;0.0;1838.2656
135.415;1.2499928;1.368422;2572.4487;-6378.371;-3805.9224;2401.6719;0.0;0.0;1838.2656
135.42;1.2498;1.3573571;2571.0044;-6385.3813;-3814.377;2343.54;0.0;0.0;1838.2656
135.425;1.2491727;1.3494214;2568.0093;-6389.5615;-3821.5522;2305.766;0.0;0.0;1838.2656
135.43;1.2482834;1.3463353;2564.3335;-6389.8203;-3825.4868;2296.0984;0.0;0.0;1838.2656
135.435;1.2473984;1.347421;2561.0051;-6387.1797;-3826.1746;2308.7432;0.0;0.0;1838.2656
135.44;1.246729;1.3520263;2558.6553;-6382.059;-3823.4038;2338.8398;0.0;0.0;1838.2656
135.445;1.2463384;1.3589846;2557.2686;-6375.472;-3818.2036;2379.987;0.0;0.0;1838.2656
135.45;1.2461323;1.3671885;2556.4634;-6367.8267;-3811.3633;2426.8398;0.0;0.0;1838.2656
135.455;1.2460245;1.3760759;2556.1045;-6359.842;-3803.7373;2476.57;0.0;0.0;1838.2656
135.46;1.2460616;1.3842595;2556.5854;-6352.821;-3796.2354;2520.739;0.0;0.0;1838.2656
135.465;1.2463853;1.3908293;2558.436;-6347.3125;-3788.8765;2553.2693;0.0;0.0;1838.2656
135.47;1.2470683;1.393531;2561.5986;-6345.3135;-3783.7148;2561.843;0.0;0.0;1838.2656
135.475;1.2479582;1.3921927;2565.2822;-6346.5396;-3781.2573;2547.0957;0.0;0.0;1838.2656
135.48;1.2488174;1.3863834;2568.646;-6351.4004;-3782.7544;2508.331;0.0;0.0;1838.2656
135.485;1.2495012;1.3772346;2571.2136;-6358.6147;-3787.4011;2452.742;0.0;0.0;1838.2656
135.49;1.2499447;1.3656877;2572.797;-6367.9424;-3795.1453;2385.8965;0.0;0.0;1838.2656
135.495;1.2501364;1.3533143;2573.3137;-6377.6465;-3804.3328;2316.626;0.0;0.0;1838.2656
135.5;1.2500582;1.3415313;2572.709;-6386.9756;-3814.2666;2252.8547;0.0;0.0;1838.2656
135.505;1.2497151;1.3320504;2570.9941;-6394.3145;-3823.3203;2203.9998;0.0;0.0;1838.2656
135.51;1.2491214;1.326074;2568.348;-6398.6978;-3830.3499;2176.3328;0.0;0.0;1838.2656
135.515;1.2483693;1.3242503;2565.3076;-6399.9336;-3834.626;2172.3562;0.0;0.0;1838.2656
135.52;1.2476381;1.3263948;2562.5933;-6398.498;-3835.9048;2189.6113;0.0;0.0;1838.2656
135.525;1.2470874;1.3317215;2560.733;-6394.966;-3834.233;2222.708;0.0;0.0;1838.2656
135.53;1.2467837;1.3386495;2559.8027;-6390.8877;-3831.085;2262.775;0.0;0.0;1838.2656
135.535;1.2466764;1.3465338;2559.5269;-6386.6543;-3827.1274;2306.8064;0.0;0.0;1838.2656
135.54;1.246675;1.3547988;2559.5015;-6382.2188;-3822.7173;2352.437;0.0;0.0;1838.2656
135.545;1.2466718;1.363199;2559.3164;-6377.8115;-3818.495;2399.1326;0.0;0.0;1838.2656
135.55;1.2465827;1.3720851;2558.7354;-6372.9565;-3814.2212;2449.2996;0.0;0.0;1838.2656
135.555;1.2463994;1.3819072;2557.926;-6366.8965;-3808.9705;2505.0857;0.0;0.0;1838.2656
135.56;1.2462347;1.3919897;2557.4958;-6360.545;-3803.049;2561.549;0.0;0.0;1838.2656
135.565;1.2462723;1.4012108;2558.101;-6355.224;-3797.123;2611.1904;0.0;0.0;1838.2656
135.57;1.2466202;1.4083284;2559.9277;-6351.5635;-3791.6357;2646.7896;0.0;0.0;1838.2656
135.575;1.2472148;1.4123079;2562.4548;-6350.251;-3787.7961;2663.681;0.0;0.0;1838.2656
135.58;1.2478434;1.4130539;2564.7551;-6351.211;-3786.4558;2663.1946;0.0;0.0;1838.2656
135.585;1.2482749;1.4117228;2566.0464;-6353.289;-3787.2427;2653.272;0.0;0.0;1838.2656
135.59;1.24839;1.40949;2566.06;-6355.818;-3789.7578;2640.931;0.0;0.0;1838.2656
135.595;1.2482073;1.4077246;2564.998;-6357.7354;-3792.7373;2633.319;0.0;0.0;1838.2656
135.6;1.2478298;1.4081898;2563.3755;-6357.3223;-3793.9468;2639.13;0.0;0.0;1838.2656
135.605;1.2474166;1.4107114;2561.8494;-6355.211;-3793.3616;2656.088;0.0;0.0;1838.2656
135.61;1.2471249;1.4143841;2560.9536;-6352.6523;-3791.6987;2678.134;0.0;0.0;1838.2656
135.615;1.2470304;1.4187493;2560.7346;-6349.838;-3789.1033;2702.6453;0.0;0.0;1838.2656
135.62;1.2470516;1.4235884;2560.715;-6346.485;-3785.7698;2729.3708;0.0;0.0;1838.2656
135.625;1.2470294;1.4288818;2560.3296;-6342.7236;-3782.394;2759.3337;0.0;0.0;1838.2656
135.63;1.2468776;1.4348644;2559.5144;-6338.5483;-3779.034;2793.9568;0.0;0.0;1838.2656
135.635;1.2466831;1.4416519;2558.859;-6333.9688;-3775.1099;2832.6997;0.0;0.0;1838.2656
135.64;1.2466468;1.4483645;2559.0625;-6329.89;-3770.8276;2869.3108;0.0;0.0;1838.2656
135.645;1.2468668;1.4543332;2560.171;-6326.433;-3766.2622;2900.0105;0.0;0.0;1838.2656
135.65;1.2472166;1.4588695;2561.458;-6324.294;-3762.836;2922.453;0.0;0.0;1838.2656
135.655;1.2474675;1.4626362;2562.142;-6322.4795;-3760.3374;2941.8577;0.0;0.0;1838.2656
135.66;1.2475042;1.4661812;2561.982;-6320.6553;-3758.6733;2961.7278;0.0;0.0;1838.2656
135.665;1.2473575;1.4704475;2561.1885;-6318.184;-3756.9956;2986.8425;0.0;0.0;1838.2656
135.67;1.2471129;1.476062;2560.1025;-6314.1396;-3754.037;3019.977;0.0;0.0;1838.2656
135.675;1.2468547;1.482842;2559.0771;-6309.5596;-3750.4824;3059.4182;0.0;0.0;1838.2656
135.68;1.2466753;1.4903901;2558.4937;-6304.3105;-3745.817;3102.211;0.0;0.0;1838.2656
135.685;1.2466546;1.4979495;2558.5356;-6299.052;-3740.516;3143.8162;0.0;0.0;1838.2656
135.69;1.2467742;1.5052845;2558.9668;-6293.9243;-3734.9575;3183.4053;0.0;0.0;1838.2656
135.695;1.2469227;1.511675;2559.3638;-6289.5356;-3730.1719;3217.8533;0.0;0.0;1838.2656
135.7;1.2470163;1.5177896;2559.5986;-6285.0977;-3725.499;3251.104;0.0;0.0;1838.2656
135.705;1.2470998;1.5229565;2560.0188;-6281.5625;-3721.5437;3278.758;0.0;0.0;1838.2656
135.71;1.2472936;1.5269432;2561.0542;-6278.869;-3717.815;3298.6733;0.0;0.0;1838.2656
135.715;1.2476608;1.5289195;2562.7803;-6277.9253;-3715.145;3306.1196;0.0;0.0;1838.2656
135.72;1.2481399;1.5284426;2564.7607;-6278.826;-3714.0654;3299.5293;0.0;0.0;1838.2656
135.725;1.2485665;1.5257612;2566.3286;-6281.2876;-3714.959;3281.6062;0.0;0.0;1838.2656
135.73;1.2488053;1.5214839;2567.1162;-6284.785;-3717.669;3256.4424;0.0;0.0;1838.2656
135.735;1.2488443;1.5170864;2567.1328;-6288.001;-3720.8682;3232.1575;0.0;0.0;1838.2656
135.74;1.2487167;1.5131614;2566.4946;-6290.3125;-3723.8179;3211.7883;0.0;0.0;1838.2656
135.745;1.2484578;1.5102785;2565.4307;-6291.961;-3726.5303;3198.0176;0.0;0.0;1838.2656
135.75;1.2481592;1.5085852;2564.3818;-6292.4854;-3728.1035;3190.7773;0.0;0.0;1838.2656
135.755;1.2479427;1.5076482;2563.7905;-6292.702;-3728.9116;3186.7927;0.0;0.0;1838.2656
135.76;1.2478851;1.5071664;2563.7979;-6292.453;-3728.6553;3184.1206;0.0;0.0;1838.2656
135.765;1.2479575;1.5059525;2564.2266;-6293.169;-3728.9424;3176.569;0.0;0.0;1838.2656
135.77;1.2480971;1.504402;2564.8445;-6294.0796;-3729.235;3166.7825;0.0;0.0;1838.2656
135.775;1.2482584;1.5016971;2565.5227;-6296.2266;-3730.7039;3150.5088;0.0;0.0;1838.2656
135.78;1.2484114;1.4986272;2566.0356;-6298.8086;-3732.773;3132.553;0.0;0.0;1838.2656
135.785;1.24845;1.495829;2565.734;-6300.969;-3735.2354;3117.7256;0.0;0.0;1838.2656
135.79;1.2481581;1.4950057;2563.8926;-6301.328;-3737.4355;3116.8677;0.0;0.0;1838.2656
135.795;1.2474546;1.4978716;2560.6643;-6298.427;-3737.7625;3139.1292;0.0;0.0;1838.2656
135.8;1.2465566;1.5052066;2557.147;-6292.093;-3734.9458;3186.6145;0.0;0.0;1838.2656
135.805;1.2457924;1.5159271;2554.567;-6283.4473;-3728.8804;3250.8962;0.0;0.0;1838.2656
135.81;1.2453984;1.5288684;2553.6;-6273.378;-3719.7778;3324.199;0.0;0.0;1838.2656
135.815;1.2454334;1.5412681;2554.3262;-6264.0767;-3709.7505;3391.1284;0.0;0.0;1838.2656
135.82;1.2458453;1.5516782;2556.3809;-6256.8184;-3700.4375;3444.428;0.0;0.0;1838.2656
135.825;1.2464924;1.5583752;2559.1345;-6252.6187;-3693.4841;3475.854;0.0;0.0;1838.2656
135.83;1.247206;1.5614275;2561.9282;-6251.1006;-3689.1724;3487.0986;0.0;0.0;1838.2656
135.835;1.2478486;1.5608841;2564.3933;-6252.075;-3687.682;3479.1719;0.0;0.0;1838.2656
135.84;1.248402;1.5574473;2566.6553;-6254.6846;-3688.0293;3455.6953;0.0;0.0;1838.2656
135.845;1.2489606;1.5502456;2569.1448;-6260.4287;-3691.284;3411.0005;0.0;0.0;1838.2656
135.85;1.2496121;1.5397321;2571.8618;-6268.741;-3696.8794;3347.586;0.0;0.0;1838.2656
135.855;1.2502152;1.5260724;2573.8481;-6279.327;-3705.479;3268.283;0.0;0.0;1838.2656
135.86;1.2504354;1.511731;2573.9136;-6289.782;-3715.8687;3189.0627;0.0;0.0;1838.2656
135.865;1.2500985;1.4989259;2571.9785;-6298.4473;-3726.4688;3122.315;0.0;0.0;1838.2656
135.87;1.2494223;1.4897217;2569.3284;-6304.0625;-3734.7341;3076.8557;0.0;0.0;1838.2656
135.875;1.2488321;1.4831779;2567.544;-6308.0225;-3740.4785;3044.337;0.0;0.0;1838.2656
135.88;1.2486017;1.4780949;2567.091;-6311.3506;-3744.2595;3017.211;0.0;0.0;1838.2656
135.885;1.2486085;1.473519;2567.0908;-6314.718;-3747.627;2991.9763;0.0;0.0;1838.2656
135.89;1.2485368;1.4694747;2566.3972;-6318.062;-3751.6648;2971.06;0.0;0.0;1838.2656
135.895;1.2481875;1.4680227;2564.4932;-6319.2085;-3754.7153;2966.8606;0.0;0.0;1838.2656
135.9;1.2475526;1.4701242;2561.5557;-6317.074;-3755.5186;2984.3254;0.0;0.0;1838.2656
135.905;1.2467562;1.4765512;2558.331;-6311.3555;-3753.0244;3026.2175;0.0;0.0;1838.2656
135.91;1.2460582;1.4859302;2555.9917;-6303.694;-3747.7021;3082.6196;0.0;0.0;1838.2656
135.915;1.245757;1.4965874;2555.5835;-6295.589;-3740.0054;3142.2085;0.0;0.0;1838.2656
135.92;1.2460107;1.5055305;2557.356;-6289.468;-3732.1118;3187.983;0.0;0.0;1838.2656
135.925;1.2467229;1.5110024;2560.6265;-6286.583;-3725.9565;3211.6182;0.0;0.0;1838.2656
135.93;1.24763;1.5117186;2564.2437;-6287.4526;-3723.209;3208.3335;0.0;0.0;1838.2656
135.935;1.248435;1.5085922;2567.0916;-6291.163;-3724.0715;3185.3967;0.0;0.0;1838.2656
135.94;1.2489218;1.5030233;2568.5269;-6296.07;-3727.543;3151.8145;0.0;0.0;1838.2656
135.945;1.2490356;1.4965918;2568.6384;-6301.4346;-3732.7961;3116.1228;0.0;0.0;1838.2656
135.95;1.248912;1.4904811;2568.0972;-6306.2793;-3738.1821;3083.5066;0.0;0.0;1838.2656
135.955;1.2487452;1.4849579;2567.6064;-6310.615;-3743.0088;3054.0283;0.0;0.0;1838.2656
135.96;1.2486581;1.4800953;2567.3843;-6314.4463;-3747.062;3027.656;0.0;0.0;1838.2656
135.965;1.2486018;1.4756368;2567.0278;-6318.129;-3751.101;3003.7817;0.0;0.0;1838.2656
135.97;1.2484251;1.4721427;2566.0295;-6320.964;-3754.9343;2986.5088;0.0;0.0;1838.2656
135.975;1.2480599;1.4707657;2564.3955;-6321.5703;-3757.1748;2982.183;0.0;0.0;1838.2656
135.98;1.2476141;1.4714594;2562.789;-6320.607;-3757.8179;2989.222;0.0;0.0;1838.2656
135.985;1.2473092;1.473205;2562.0454;-6318.977;-3756.9316;3000.3352;0.0;0.0;1838.2656
135.99;1.2472978;1.4744132;2562.4949;-6318.296;-3755.801;3006.099;0.0;0.0;1838.2656
135.995;1.2475448;1.4746232;2563.707;-6318.251;-3754.544;3004.8333;0.0;0.0;1838.2656
136.0;1.2478578;1.4727151;2564.824;-6320.237;-3755.4128;2992.0771;0.0;0.0;1838.2656
136.005;1.24802;1.4703761;2565.0186;-6321.918;-3756.8994;2978.7888;0.0;0.0;1838.2656
136.01;1.2478738;1.4689741;2563.8691;-6322.0293;-3758.1602;2973.3557;0.0;0.0;1838.2656
136.015;1.247411;1.4694283;2561.5781;-6320.369;-3758.791;2980.4426;0.0;0.0;1838.2656
136.02;1.2467713;1.4727685;2558.9277;-6315.9336;-3757.0059;3004.1643;0.0;0.0;1838.2656
136.025;1.2462138;1.4782387;2557.0886;-6309.843;-3752.7542;3038.0093;0.0;0.0;1838.2656
136.03;1.2460439;1.4842396;2557.2075;-6303.2627;-3746.0552;3070.865;0.0;0.0;1838.2656
136.035;1.2464682;1.4875493;2559.7522;-6299.1616;-3739.4094;3084.028;0.0;0.0;1838.2656
136.04;1.2474333;1.4857134;2564.0737;-6299.6035;-3735.5298;3065.2603;0.0;0.0;1838.2656
136.045;1.2486309;1.47741;2568.8857;-6305.279;-3736.393;3009.8445;0.0;0.0;1838.2656
136.05;1.249752;1.4636048;2573.1838;-6314.6367;-3741.453;2925.1155;0.0;0.0;1838.2656
136.055;1.2506472;1.4448799;2576.5063;-6327.772;-3751.2656;2815.2063;0.0;0.0;1838.2656
136.06;1.2512486;1.4226974;2578.4949;-6343.3057;-3764.8108;2688.8972;0.0;0.0;1838.2656
136.065;1.2514546;1.3996601;2578.8433;-6358.8447;-3780.0015;2561.1548;0.0;0.0;1838.2656
136.07;1.2512629;1.3773385;2577.8545;-6373.253;-3795.3984;2440.033;0.0;0.0;1838.2656
136.075;1.2508676;1.356905;2576.3984;-6386.4375;-3810.039;2330.2583;0.0;0.0;1838.2656
136.08;1.2504897;1.338388;2575.0703;-6398.252;-3823.1816;2230.797;0.0;0.0;1838.2656
136.085;1.2501589;1.3221138;2573.7344;-6408.734;-3834.9995;2143.7202;0.0;0.0;1838.2656
136.09;1.2497644;1.3083618;2571.9248;-6417.3677;-3845.4429;2071.4998;0.0;0.0;1838.2656
136.095;1.2491992;1.2980319;2569.3506;-6423.593;-3854.2422;2019.6814;0.0;0.0;1838.2656
136.1;1.2484503;1.2920774;2566.1045;-6426.571;-3860.4663;1993.3354;0.0;0.0;1838.2656
136.105;1.2475878;1.2914413;2562.486;-6425.35;-3862.864;1997.0646;0.0;0.0;1838.2656
136.11;1.2466881;1.2958374;2558.75;-6420.343;-3861.5928;2028.7802;0.0;0.0;1838.2656
136.115;1.2457981;1.3047441;2555.122;-6412.4307;-3857.3086;2085.1548;0.0;0.0;1838.2656
136.12;1.2449929;1.3178428;2552.061;-6401.3022;-3849.2412;2163.5137;0.0;0.0;1838.2656
136.125;1.2444342;1.3339294;2550.353;-6387.801;-3837.4478;2255.6438;0.0;0.0;1838.2656
136.13;1.2443367;1.350067;2550.7585;-6374.959;-3824.2004;2343.8281;0.0;0.0;1838.2656
136.135;1.2448114;1.3632191;2553.3167;-6365.4194;-3812.1028;2411.2437;0.0;0.0;1838.2656
136.14;1.2457019;1.3715805;2556.9844;-6360.0127;-3803.0283;2450.019;0.0;0.0;1838.2656
136.145;1.246624;1.376211;2560.2334;-6356.7207;-3796.4873;2469.0574;0.0;0.0;1838.2656
136.15;1.2472528;1.3772261;2562.2144;-6355.9365;-3793.7222;2470.6938;0.0;0.0;1838.2656
136.155;1.247567;1.3764557;2563.3633;-6355.868;-3792.505;2464.1467;0.0;0.0;1838.2656
