time;temperature;pressure;kinetic_energy;potential_energy;total_energy;virial;msd;diffusion;volume
1555.005;0.6794659;0.08324309;1398.2283;-6950.407;-5552.1787;-2337.3877;0.0;0.0;1838.2656
1555.01;0.6796456;0.0796411;1398.866;-6954.167;-5555.301;-2358.5273;0.0;0.0;1838.2656
1555.015;0.67973745;0.075735025;1399.0533;-6958.0103;-5558.957;-2380.4434;0.0;0.0;1838.2656
1555.02;0.6796863;0.072231114;1398.597;-6961.567;-5562.9697;-2398.8542;0.0;0.0;1838.2656
1555.025;0.6794622;0.070323996;1397.4402;-6963.5034;-5566.0635;-2407.0579;0.0;0.0;1838.2656
1555.03;0.67907864;0.07036244;1395.691;-6964.039;-5568.348;-2403.3474;0.0;0.0;1838.2656
1555.035;0.678585;0.07315806;1393.6035;-6962.1055;-5568.502;-2383.7551;0.0;0.0;1838.2656
1555.04;0.67806;0.07846969;1391.5182;-6958.64;-5567.122;-2350.292;0.0;0.0;1838.2656
1555.045;0.6775917;0.08612606;1389.7734;-6953.217;-5563.4434;-2304.579;0.0;0.0;1838.2656
1555.05;0.6772518;0.09539776;1388.6274;-6946.8877;-5558.2603;-2251.1555;0.0;0.0;1838.2656
1555.055;0.6770871;0.10567268;1388.2092;-6939.5396;-5551.33;-2193.655;0.0;0.0;1838.2656
1555.06;0.67710346;0.11539686;1388.4905;-6933.1133;-5544.623;-2140.5908;0.0;0.0;1838.2656
1555.065;0.6772713;0.12446659;1389.2874;-6927.0835;-5537.796;-2092.1667;0.0;0.0;1838.2656
1555.07;0.6775256;0.1319534;1390.3406;-6922.2817;-5531.9414;-2052.9849;0.0;0.0;1838.2656
1555.075;0.6778048;0.13756745;1391.4243;-6919.008;-5527.5835;-2024.1921;0.0;0.0;1838.2656
1555.08;0.67806536;0.14216574;1392.4097;-6915.9287;-5523.519;-2000.8042;0.0;0.0;1838.2656
1555.085;0.67829335;0.14495607;1393.2605;-6914.314;-5521.0537;-1987.1177;0.0;0.0;1838.2656
1555.09;0.6784851;0.14668788;1393.9639;-6913.1904;-5519.2266;-1978.9739;0.0;0.0;1838.2656
1555.095;0.67863727;0.14738424;1394.4825;-6912.68;-5518.1978;-1976.1709;0.0;0.0;1838.2656
1555.1;0.67873585;0.14752622;1394.764;-6912.1055;-5517.3413;-1975.9509;0.0;0.0;1838.2656
1555.105;0.6787716;0.1473199;1394.8245;-6911.405;-5516.58;-1977.2096;0.0;0.0;1838.2656
1555.11;0.6787662;0.14695649;1394.7861;-6910.4785;-5515.6924;-1979.1371;0.0;0.0;1838.2656
1555.115;0.67876047;0.14613593;1394.8153;-6909.993;-5515.1777;-1983.7207;0.0;0.0;1838.2656
1555.12;0.67879295;0.1447493;1395.0674;-6909.885;-5514.8174;-1991.8718;0.0;0.0;1838.2656
1555.125;0.6788956;0.14286222;1395.6116;-6909.755;-5514.1436;-2003.3671;0.0;0.0;1838.2656
1555.13;0.67906433;0.13948518;1396.4099;-6910.998;-5514.588;-2023.5874;0.0;0.0;1838.2656
1555.135;0.6792813;0.13464479;1397.3789;-6913.6123;-5516.2334;-2052.2192;0.0;0.0;1838.2656
1555.14;0.67952263;0.12843452;1398.4089;-6917.0493;-5518.6406;-2088.5276;0.0;0.0;1838.2656
1555.145;0.67976;0.12092967;1399.4028;-6921.3613;-5521.9585;-2131.903;0.0;0.0;1838.2656
1555.15;0.6799762;0.11226018;1400.2949;-6926.4224;-5526.1274;-2181.4978;0.0;0.0;1838.2656
1555.155;0.6801572;0.10273577;1401.0103;-6931.9507;-5530.9404;-2235.4536;0.0;0.0;1838.2656
1555.16;0.68028134;0.092577234;1401.4463;-6937.914;-5536.468;-2292.348;0.0;0.0;1838.2656
1555.165;0.6803216;0.082148895;1401.5046;-6944.203;-5542.698;-2349.9749;0.0;0.0;1838.2656
1555.17;0.6802617;0.072025776;1401.1365;-6950.415;-5549.2783;-2405.0654;0.0;0.0;1838.2656
1555.175;0.6801004;0.062855884;1400.3724;-6955.788;-5555.4155;-2454.1074;0.0;0.0;1838.2656
1555.18;0.6798589;0.05515777;1399.3457;-6959.8857;-5560.54;-2494.5076;0.0;0.0;1838.2656
1555.185;0.6795856;0.049032625;1398.2549;-6962.7285;-5564.4736;-2526.1047;0.0;0.0;1838.2656
1555.19;0.6793308;0.044313222;1397.3403;-6964.7686;-5567.428;-2550.3022;0.0;0.0;1838.2656
1555.195;0.6791605;0.040347658;1396.8574;-6966.4336;-5569.576;-2571.2058;0.0;0.0;1838.2656
1555.2;0.6791252;0.036565598;1396.9633;-6968.227;-5571.2637;-2592.2747;0.0;0.0;1838.2656
1555.205;0.6792371;0.03229175;1397.5945;-6970.7075;-5573.1133;-2617.1064;0.0;0.0;1838.2656
1555.21;0.6794411;0.027375352;1398.4799;-6973.538;-5575.058;-2645.9902;0.0;0.0;1838.2656
1555.215;0.67965436;0.02124195;1399.2892;-6977.6206;-5578.3315;-2681.4333;0.0;0.0;1838.2656
1555.22;0.6798063;0.014278377;1399.7944;-6982.4873;-5582.693;-2720.8464;0.0;0.0;1838.2656
1555.225;0.6798654;0.007279925;1399.9238;-6987.1084;-5587.1846;-2759.7004;0.0;0.0;1838.2656
1555.23;0.6798353;0.0002696969;1399.7133;-6992.058;-5592.3447;-2797.9392;0.0;0.0;1838.2656
1555.235;0.67973197;-0.0059789396;1399.2126;-6995.999;-5596.786;-2831.398;0.0;0.0;1838.2656
1555.24;0.6795641;-0.011331502;1398.4528;-6999.419;-5600.9663;-2859.3965;0.0;0.0;1838.2656
1555.245;0.67933875;-0.015493993;1397.4568;-7001.938;-5604.4814;-2880.3599;0.0;0.0;1838.2656
1555.25;0.6790607;-0.01805242;1396.252;-7003.15;-5606.898;-2892.0593;0.0;0.0;1838.2656
1555.255;0.67873925;-0.018835563;1394.8666;-7003.067;-5608.2;-2893.6074;0.0;0.0;1838.2656
1555.26;0.6783835;-0.017413927;1393.3865;-7001.089;-5607.702;-2882.8071;0.0;0.0;1838.2656
1555.265;0.6780302;-0.014162637;1392.0004;-6997.6465;-5605.646;-2862.1047;0.0;0.0;1838.2656
1555.27;0.6777367;-0.009616009;1390.9458;-6993.659;-5602.7134;-2834.9219;0.0;0.0;1838.2656
1555.275;0.6775584;-0.0040694405;1390.4329;-6988.9155;-5598.4824;-2803.3079;0.0;0.0;1838.2656
1555.28;0.67753345;0.0016188226;1390.5487;-6984.1816;-5593.633;-2772.17;0.0;0.0;1838.2656
1555.285;0.677653;0.0067491815;1391.1669;-6980.1123;-5588.9453;-2745.1133;0.0;0.0;1838.2656
1555.29;0.6778538;0.01075115;1391.9958;-6977.007;-5585.0107;-2724.7014;0.0;0.0;1838.2656
1555.295;0.67805684;0.013554194;1392.7507;-6974.962;-5582.211;-2710.753;0.0;0.0;1838.2656
1555.3;0.6782122;0.015615414;1393.3108;-6973.249;-5579.9385;-2700.5059;0.0;0.0;1838.2656
1555.305;0.6783208;0.016793262;1393.7415;-6972.2334;-5578.492;-2694.8716;0.0;0.0;1838.2656
1555.31;0.6784196;0.017291434;1394.1902;-6971.4463;-5577.256;-2693.0217;0.0;0.0;1838.2656
1555.315;0.6785414;0.01712553;1394.7584;-6971.124;-5576.3657;-2695.073;0.0;0.0;1838.2656
1555.32;0.67869836;0.01610798;1395.4454;-6971.212;-5575.7666;-2702.0586;0.0;0.0;1838.2656
1555.325;0.67887175;0.014111429;1396.1313;-6972.05;-5575.9185;-2714.441;0.0;0.0;1838.2656
1555.33;0.6790193;0.01136257;1396.6107;-6973.441;-5576.83;-2730.559;0.0;0.0;1838.2656
1555.335;0.6790852;0.008178961;1396.708;-6975.094;-5578.386;-2748.3108;0.0;0.0;1838.2656
1555.34;0.67904735;0.005187987;1396.3885;-6976.4463;-5580.0576;-2764.1665;0.0;0.0;1838.2656
1555.345;0.67891926;0.0028201756;1395.7584;-6977.3804;-5581.622;-2775.964;0.0;0.0;1838.2656
1555.35;0.6787459;0.0014617235;1395.0515;-6977.3667;-5582.3154;-2782.042;0.0;0.0;1838.2656
1555.355;0.67859447;0.0008396765;1394.4978;-6976.7744;-5582.2764;-2784.365;0.0;0.0;1838.2656
1555.36;0.6785005;0.00072821847;1394.1663;-6975.9897;-5581.823;-2784.3167;0.0;0.0;1838.2656
1555.365;0.6784514;0.0009784236;1393.9683;-6975.1553;-5581.187;-2782.5408;0.0;0.0;1838.2656
1555.37;0.6784148;0.0015551107;1393.8071;-6974.109;-5580.302;-2779.038;0.0;0.0;1838.2656
1555.375;0.6783804;0.0025294821;1393.6707;-6972.693;-5579.0225;-2773.3918;0.0;0.0;1838.2656
1555.38;0.67835456;0.00366312;1393.6008;-6971.319;-5577.718;-2767.0002;0.0;0.0;1838.2656
1555.385;0.6783466;0.004922489;1393.5569;-6970.0947;-5576.538;-2759.9673;0.0;0.0;1838.2656
1555.39;0.6783218;0.006722819;1393.3676;-6968.201;-5574.8335;-2749.6602;0.0;0.0;1838.2656
1555.395;0.6782336;0.00898207;1392.8799;-6966.2275;-5573.3477;-2736.2256;0.0;0.0;1838.2656
1555.4;0.6780639;0.012382163;1392.0703;-6963.076;-5571.006;-2715.8555;0.0;0.0;1838.2656
1555.405;0.6778296;0.016805142;1391.0955;-6959.3467;-5568.251;-2689.514;0.0;0.0;1838.2656
1555.41;0.67759734;0.022436341;1390.223;-6954.678;-5564.455;-2656.714;0.0;0.0;1838.2656
1555.415;0.6774299;0.029091844;1389.7106;-6949.0776;-5559.367;-2618.9856;0.0;0.0;1838.2656
1555.42;0.6773835;0.036073275;1389.734;-6943.424;-5553.69;-2580.5312;0.0;0.0;1838.2656
1555.425;0.6774794;0.042210594;1390.3274;-6938.6396;-5548.3125;-2547.8718;0.0;0.0;1838.2656
1555.43;0.67770267;0.047008786;1391.3977;-6935.4062;-5544.009;-2523.5515;0.0;0.0;1838.2656
1555.435;0.6780176;0.05051937;1392.7709;-6933.032;-5540.261;-2506.9377;0.0;0.0;1838.2656
1555.44;0.6783691;0.05231039;1394.1892;-6932.166;-5537.9766;-2499.8972;0.0;0.0;1838.2656
1555.445;0.6786843;0.052479956;1395.3567;-6932.668;-5537.3115;-2501.297;0.0;0.0;1838.2656
1555.45;0.67889464;0.051946614;1396.014;-6933.524;-5537.51;-2505.553;0.0;0.0;1838.2656
1555.455;0.6789524;0.05124175;1396.044;-6934.352;-5538.308;-2509.5;0.0;0.0;1838.2656
1555.46;0.67886126;0.050947968;1395.5516;-6934.9043;-5539.3525;-2510.1355;0.0;0.0;1838.2656
1555.465;0.67868054;0.051558137;1394.8016;-6934.763;-5539.9614;-2505.2705;0.0;0.0;1838.2656
1555.47;0.6784825;0.05310197;1394.0886;-6934.0405;-5539.952;-2495.3306;0.0;0.0;1838.2656
1555.475;0.67833394;0.055497088;1393.6211;-6932.6074;-5538.9863;-2481.187;0.0;0.0;1838.2656
1555.48;0.6782609;0.05819321;1393.4363;-6931.044;-5537.6074;-2465.9487;0.0;0.0;1838.2656
1555.485;0.6782486;0.060924944;1393.4648;-6929.659;-5536.1943;-2450.941;0.0;0.0;1838.2656
1555.49;0.67827606;0.06361065;1393.5975;-6928.162;-5534.5645;-2436.3953;0.0;0.0;1838.2656
1555.495;0.678312;0.066070296;1393.7483;-6926.9546;-5533.206;-2423.1323;0.0;0.0;1838.2656
1555.5;0.678347;0.06829662;1393.8759;-6925.831;-5531.955;-2411.1096;0.0;0.0;1838.2656
1555.505;0.67837065;0.07032932;1393.9485;-6924.742;-5530.794;-2400.045;0.0;0.0;1838.2656
1555.51;0.6783801;0.072232336;1393.9717;-6923.737;-5529.765;-2389.5967;0.0;0.0;1838.2656
1555.515;0.6783847;0.07370398;1394.0205;-6923.1133;-5529.093;-2381.5786;0.0;0.0;1838.2656
1555.52;0.6784134;0.074954405;1394.2385;-6922.426;-5528.1875;-2375.1187;0.0;0.0;1838.2656
1555.525;0.6785063;0.075512365;1394.7622;-6922.402;-5527.6396;-2373.089;0.0;0.0;1838.2656
1555.53;0.6786831;0.074978046;1395.6152;-6923.186;-5527.571;-2377.7417;0.0;0.0;1838.2656
1555.535;0.67892504;0.073151186;1396.6461;-6924.9194;-5528.2734;-2389.8784;0.0;0.0;1838.2656
1555.54;0.67917097;0.06976088;1397.5947;-6927.8105;-5530.216;-2410.4724;0.0;0.0;1838.2656
1555.545;0.67935675;0.06567075;1398.2295;-6930.9517;-5532.722;-2434.298;0.0;0.0;1838.2656
1555.55;0.6794416;0.061093166;1398.417;-6934.3574;-5535.9404;-2459.9175;0.0;0.0;1838.2656
1555.555;0.6794082;0.05641592;1398.1151;-6937.7607;-5539.6455;-2485.108;0.0;0.0;1838.2656
1555.56;0.6792576;0.05253844;1397.3394;-6940.453;-5543.114;-2504.94;0.0;0.0;1838.2656
1555.565;0.679;0.049972583;1396.1404;-6942.0825;-5545.9424;-2516.6921;0.0;0.0;1838.2656
1555.57;0.67865515;0.04932697;1394.6506;-6941.9062;-5547.256;-2517.273;0.0;0.0;1838.2656
1555.575;0.6782718;0.050681535;1393.0828;-6940.0854;-5547.003;-2506.6672;0.0;0.0;1838.2656
1555.58;0.67790616;0.053864524;1391.6897;-6936.8794;-5545.1895;-2486.3274;0.0;0.0;1838.2656
1555.585;0.6776239;0.058301795;1390.7166;-6932.8354;-5542.119;-2459.9106;0.0;0.0;1838.2656
1555.59;0.6774736;0.06358452;1390.3282;-6928.1006;-5537.7725;-2430.0007;0.0;0.0;1838.2656
1555.595;0.6774799;0.06866347;1390.5735;-6923.8486;-5533.2754;-2402.482;0.0;0.0;1838.2656
1555.6;0.67763436;0.072771594;1391.3822;-6920.375;-5528.9927;-2381.4438;0.0;0.0;1838.2656
1555.605;0.67790616;0.07554064;1392.6243;-6917.9287;-5525.3047;-2368.6572;0.0;0.0;1838.2656
1555.61;0.67825997;0.076030515;1394.1416;-6917.693;-5523.5513;-2368.9902;0.0;0.0;1838.2656
1555.615;0.6786533;0.07470122;1395.7603;-6918.3516;-5522.5913;-2379.5583;0.0;0.0;1838.2656
1555.62;0.6790443;0.07123516;1397.3411;-6920.6885;-5523.3477;-2401.8347;0.0;0.0;1838.2656
1555.625;0.6794078;0.065777056;1398.7599;-6924.5293;-5525.7695;-2434.7727;0.0;0.0;1838.2656
1555.63;0.6797105;0.058692392;1399.8994;-6929.632;-5529.7324;-2476.1223;0.0;0.0;1838.2656
1555.635;0.6799304;0.050342344;1400.6627;-6935.616;-5534.9536;-2523.6978;0.0;0.0;1838.2656
1555.64;0.6800454;0.041649885;1400.9854;-6941.7554;-5540.77;-2572.28;0.0;0.0;1838.2656
1555.645;0.6800491;0.03301271;1400.8456;-6947.743;-5546.8975;-2619.6328;0.0;0.0;1838.2656
1555.65;0.67994016;0.025096893;1400.2601;-6953.133;-5552.8726;-2662.116;0.0;0.0;1838.2656
1555.655;0.67973286;0.01831372;1399.3018;-6957.8525;-5558.551;-2697.6072;0.0;0.0;1838.2656
1555.66;0.6794513;0.012922541;1398.1019;-6961.6816;-5563.5796;-2724.9387;0.0;0.0;1838.2656
1555.665;0.6791372;0.009788329;1396.8397;-6963.413;-5566.573;-2739.6987;0.0;0.0;1838.2656
1555.67;0.6788353;0.008022253;1395.6685;-6964.633;-5568.9644;-2747.0957;0.0;0.0;1838.2656
1555.675;0.6785709;0.007964179;1394.6487;-6964.6123;-5569.964;-2745.3765;0.0;0.0;1838.2656
1555.68;0.6783439;0.009540473;1393.7599;-6963.408;-5569.6484;-2734.906;0.0;0.0;1838.2656
1555.685;0.6781429;0.012339453;1392.9446;-6961.426;-5568.4814;-2717.8396;0.0;0.0;1838.2656
1555.69;0.67795235;0.016447771;1392.17;-6958.5483;-5566.3784;-2693.634;0.0;0.0;1838.2656
1555.695;0.677774;0.021706346;1391.4669;-6954.8135;-5563.3467;-2663.2278;0.0;0.0;1838.2656
1555.7;0.67762387;0.0276317;1390.9149;-6950.997;-5560.082;-2629.4465;0.0;0.0;1838.2656
1555.705;0.67752403;0.0343845;1390.609;-6946.4688;-5555.86;-2591.5945;0.0;0.0;1838.2656
1555.71;0.6774971;0.041298304;1390.6279;-6942.1484;-5551.5205;-2553.5042;0.0;0.0;1838.2656
1555.715;0.67755467;0.047860328;1390.9884;-6938.249;-5547.2607;-2518.0369;0.0;0.0;1838.2656
1555.72;0.67768717;0.053770185;1391.6143;-6935.067;-5543.4526;-2486.6968;0.0;0.0;1838.2656
1555.725;0.6778636;0.058774933;1392.3561;-6932.5815;-5540.2256;-2460.5803;0.0;0.0;1838.2656
1555.73;0.67804176;0.06301896;1393.0579;-6930.5894;-5537.5312;-2438.5789;0.0;0.0;1838.2656
1555.735;0.6781912;0.06618032;1393.6083;-6929.703;-5536.0947;-2422.2456;0.0;0.0;1838.2656
1555.74;0.6782924;0.06880666;1393.937;-6928.847;-5534.91;-2408.4192;0.0;0.0;1838.2656
1555.745;0.6783342;0.07111949;1394.0259;-6928.3457;-5534.32;-2395.8423;0.0;0.0;1838.2656
1555.75;0.6783233;0.073245406;1393.9232;-6927.786;-5533.863;-2383.9128;0.0;0.0;1838.2656
1555.755;0.6782781;0.07564198;1393.7015;-6926.6475;-5532.946;-2370.253;0.0;0.0;1838.2656
1555.76;0.67821765;0.07814618;1393.4567;-6925.3115;-5531.855;-2355.9531;0.0;0.0;1838.2656
1555.765;0.6781683;0.08070853;1393.2867;-6923.812;-5530.5254;-2341.4824;0.0;0.0;1838.2656
1555.77;0.67815053;0.083057545;1393.2698;-6922.4824;-5529.213;-2328.4941;0.0;0.0;1838.2656
1555.775;0.6781783;0.08520775;1393.4467;-6921.212;-5527.765;-2316.9897;0.0;0.0;1838.2656
1555.78;0.67825395;0.08687396;1393.8062;-6920.2754;-5526.469;-2308.52;0.0;0.0;1838.2656
1555.785;0.6783658;0.08769732;1394.2782;-6920.08;-5525.802;-2304.9236;0.0;0.0;1838.2656
1555.79;0.6784894;0.08799464;1394.771;-6920.1836;-5525.4126;-2304.2695;0.0;0.0;1838.2656
1555.795;0.6786063;0.08772799;1395.2021;-6920.71;-5525.508;-2306.6023;0.0;0.0;1838.2656
1555.8;0.6786955;0.086788006;1395.5201;-6921.877;-5526.357;-2312.422;0.0;0.0;1838.2656
1555.805;0.67875373;0.08572033;1395.6797;-6923.0938;-5527.414;-2318.6292;0.0;0.0;1838.2656
1555.81;0.6787622;0.085083775;1395.6045;-6923.657;-5528.0527;-2321.9893;0.0;0.0;1838.2656
1555.815;0.6787033;0.08464143;1395.222;-6924.203;-5528.981;-2323.6638;0.0;0.0;1838.2656
1555.82;0.678562;0.08505492;1394.5183;-6924.1846;-5529.666;-2319.976;0.0;0.0;1838.2656
1555.825;0.67835385;0.08665442;1393.5845;-6923.163;-5529.5786;-2309.2874;0.0;0.0;1838.2656
1555.83;0.6781119;0.08964258;1392.6016;-6920.995;-5528.3936;-2290.8425;0.0;0.0;1838.2656
1555.835;0.67789286;0.09371507;1391.7769;-6918.1064;-5526.3296;-2266.7341;0.0;0.0;1838.2656
1555.84;0.67773694;0.09890112;1391.2527;-6914.2627;-5523.01;-2237.0857;0.0;0.0;1838.2656
1555.845;0.67766756;0.10392666;1391.084;-6910.995;-5519.911;-2209.0334;0.0;0.0;1838.2656
1555.85;0.6776824;0.108913004;1391.2383;-6907.7896;-5516.5513;-2181.8435;0.0;0.0;1838.2656
1555.855;0.67776775;0.113634124;1391.6832;-6904.6816;-5512.9985;-2156.6973;0.0;0.0;1838.2656
1555.86;0.6779217;0.11713263;1392.4028;-6902.6396;-5510.237;-2138.843;0.0;0.0;1838.2656
1555.865;0.6781382;0.11927259;1393.3938;-6901.867;-5508.4736;-2129.0234;0.0;0.0;1838.2656
1555.87;0.6784208;0.12000417;1394.6343;-6901.9814;-5507.347;-2127.47;0.0;0.0;1838.2656
1555.875;0.6787508;0.11895383;1396.0287;-6903.4814;-5507.4526;-2136.0513;0.0;0.0;1838.2656
1555.88;0.6790959;0.11605967;1397.4182;-6906.4614;-5509.043;-2154.791;0.0;0.0;1838.2656
1555.885;0.6794092;0.11165604;1398.587;-6910.435;-5511.848;-2181.4136;0.0;0.0;1838.2656
1555.89;0.6796321;0.10590108;1399.3138;-6915.4785;-5516.1646;-2214.6047;0.0;0.0;1838.2656
1555.895;0.67971885;0.0999267;1399.4426;-6920.426;-5520.9834;-2247.8098;0.0;0.0;1838.2656
1555.9;0.679648;0.09446705;1398.9308;-6924.717;-5525.786;-2276.895;0.0;0.0;1838.2656
1555.905;0.67943174;0.09022585;1397.9083;-6927.8057;-5529.8975;-2298.2395;0.0;0.0;1838.2656
1555.91;0.67912936;0.087331936;1396.6506;-6929.921;-5533.2705;-2311.6833;0.0;0.0;1838.2656
1555.915;0.6788177;0.08593957;1395.4531;-6930.951;-5535.498;-2316.967;0.0;0.0;1838.2656
1555.92;0.67856044;0.08585959;1394.541;-6931.1333;-5536.5923;-2315.5837;0.0;0.0;1838.2656
1555.925;0.6783973;0.08664051;1394.0325;-6930.656;-5536.623;-2310.2603;0.0;0.0;1838.2656
1555.93;0.678338;0.08779499;1393.9242;-6929.9033;-5535.979;-2303.6768;0.0;0.0;1838.2656
1555.935;0.6783657;0.08881511;1394.1226;-6929.446;-5535.323;-2298.4478;0.0;0.0;1838.2656
1555.94;0.6784471;0.08936203;1394.4851;-6929.4673;-5534.9824;-2296.1567;0.0;0.0;1838.2656
1555.945;0.67854357;0.089476146;1394.86;-6929.7646;-5534.905;-2296.277;0.0;0.0;1838.2656
1555.95;0.6786224;0.08897043;1395.1365;-6930.6885;-5535.552;-2299.6191;0.0;0.0;1838.2656
1555.955;0.6786655;0.08847382;1395.2909;-6931.256;-5535.965;-2302.6667;0.0;0.0;1838.2656
1555.96;0.67868257;0.08784131;1395.3589;-6931.756;-5536.397;-2306.2908;0.0;0.0;1838.2656
1555.965;0.678681;0.086907096;1395.3734;-6932.6484;-5537.275;-2311.472;0.0;0.0;1838.2656
1555.97;0.6786678;0.086175546;1395.3245;-6933.285;-5537.961;-2315.4082;0.0;0.0;1838.2656
1555.975;0.6786295;0.08524217;1395.1494;-6934.1978;-5539.0483;-2320.2056;0.0;0.0;1838.2656
1555.98;0.6785514;0.084874436;1394.8113;-6934.4272;-5539.616;-2321.5574;0.0;0.0;1838.2656
1555.985;0.678437;0.085003585;1394.3618;-6934.427;-5540.065;-2319.946;0.0;0.0;1838.2656
1555.99;0.67831445;0.0857142;1393.9519;-6933.708;-5539.756;-2315.2075;0.0;0.0;1838.2656
1555.995;0.67823035;0.0867633;1393.7577;-6932.886;-5539.1284;-2309.0334;0.0;0.0;1838.2656
1556.0;0.6782216;0.087635934;1393.8757;-6932.3853;-5538.51;-2304.457;0.0;0.0;1838.2656
1556.005;0.67829;0.088323034;1394.2701;-6932.057;-5537.787;-2301.4568;0.0;0.0;1838.2656
1556.01;0.67840964;0.08846508;1394.772;-6932.221;-5537.449;-2301.677;0.0;0.0;1838.2656
1556.015;0.67852134;0.088208675;1395.1503;-6932.6055;-5537.455;-2303.8477;0.0;0.0;1838.2656
1556.02;0.6785745;0.08780538;1395.2452;-6933.0674;-5537.8223;-2306.2617;0.0;0.0;1838.2656
1556.025;0.6785483;0.08724571;1395.0192;-6933.867;-5538.848;-2308.896;0.0;0.0;1838.2656
1556.03;0.6784527;0.087435186;1394.5564;-6933.7773;-5539.2207;-2306.9255;0.0;0.0;1838.2656
1556.035;0.6783234;0.08790224;1394.0627;-6933.6787;-5539.616;-2303.3625;0.0;0.0;1838.2656
1556.04;0.6782261;0.089260064;1393.7695;-6932.6367;-5538.867;-2295.2878;0.0;0.0;1838.2656
1556.045;0.6782051;0.09040541;1393.8551;-6931.9834;-5538.1284;-2289.1428;0.0;0.0;1838.2656
1556.05;0.6782956;0.091087066;1394.3945;-6931.7754;-5537.381;-2286.4624;0.0;0.0;1838.2656
1556.055;0.6784897;0.090597056;1395.3102;-6933.0273;-5537.7173;-2290.996;0.0;0.0;1838.2656
1556.06;0.67874897;0.089042135;1396.3696;-6935.083;-5538.7134;-2301.69;0.0;0.0;1838.2656
1556.065;0.6789939;0.08630158;1397.2441;-6938.2393;-5540.995;-2318.5525;0.0;0.0;1838.2656
1556.07;0.6791461;0.08332504;1397.6421;-6941.367;-5543.725;-2335.7634;0.0;0.0;1838.2656
1556.075;0.6791512;0.08029521;1397.4006;-6944.5996;-5547.199;-2351.9895;0.0;0.0;1838.2656
1556.08;0.6789947;0.07865241;1396.5464;-6946.567;-5550.0205;-2359.3408;0.0;0.0;1838.2656
1556.085;0.6787141;0.07844939;1395.2576;-6947.5615;-5552.3037;-2357.8828;0.0;0.0;1838.2656
1556.09;0.678363;0.080409914;1393.7863;-6946.76;-5552.9736;-2344.1282;0.0;0.0;1838.2656
1556.095;0.67801213;0.08424705;1392.4106;-6944.706;-5552.2954;-2320.2158;0.0;0.0;1838.2656
1556.1;0.67772454;0.089732096;1391.3871;-6941.4404;-5550.053;-2287.92;0.0;0.0;1838.2656
1556.105;0.6775561;0.09615956;1390.9027;-6937.8154;-5546.9126;-2251.505;0.0;0.0;1838.2656
