time;temperature;pressure;kinetic_energy;potential_energy;total_energy;virial;msd;diffusion;volume
2665.005;0.23419766;-0.41966718;480.93628;-9384.019;-8903.082;-3276.252;0.0;0.0;1838.2656
2665.01;0.23420797;-0.41948995;480.9807;-9383.3545;-8902.374;-3275.3633;0.0;0.0;1838.2656
2665.015;0.2342159;-0.41943666;481.01147;-9382.736;-8901.725;-3275.131;0.0;0.0;1838.2656
2665.02;0.23421939;-0.41960946;481.02808;-9382.486;-8901.458;-3276.1172;0.0;0.0;1838.2656
2665.025;0.23422028;-0.41967383;481.02618;-9381.869;-8900.843;-3276.4683;0.0;0.0;1838.2656
2665.03;0.23421448;-0.41991234;480.9944;-9381.5205;-8900.526;-3277.72;0.0;0.0;1838.2656
2665.035;0.2342007;-0.4199822;480.933;-9380.893;-8899.96;-3277.9827;0.0;0.0;1838.2656
2665.04;0.23418075;-0.4200625;480.84247;-9380.412;-8899.569;-3278.2444;0.0;0.0;1838.2656
2665.045;0.23415321;-0.42009756;480.72607;-9379.874;-8899.148;-3278.2048;0.0;0.0;1838.2656
2665.05;0.23412159;-0.41975003;480.59552;-9378.857;-8898.262;-3276.0273;0.0;0.0;1838.2656
2665.055;0.23408797;-0.41931495;480.4632;-9377.882;-8897.419;-3273.3633;0.0;0.0;1838.2656
2665.06;0.23405659;-0.4187045;480.34006;-9376.777;-8896.4375;-3269.7505;0.0;0.0;1838.2656
2665.065;0.23402843;-0.4177166;480.24084;-9375.164;-8894.923;-3264.104;0.0;0.0;1838.2656
2665.07;0.2340093;-0.41690537;480.17447;-9373.929;-8893.754;-3259.4973;0.0;0.0;1838.2656
2665.075;0.23399764;-0.4160592;480.14197;-9372.824;-8892.683;-3254.7659;0.0;0.0;1838.2656
2665.08;0.23399524;-0.41526115;480.14594;-9371.76;-8891.614;-3250.3728;0.0;0.0;1838.2656
2665.085;0.23400183;-0.41444352;480.19116;-9370.586;-8890.395;-3245.954;0.0;0.0;1838.2656
2665.09;0.23401986;-0.4136562;480.29333;-9369.286;-8888.993;-3241.8167;0.0;0.0;1838.2656
2665.095;0.23405465;-0.4130665;480.46436;-9368.029;-8887.564;-3238.9067;0.0;0.0;1838.2656
2665.1;0.23410633;-0.41309234;480.71182;-9367.5625;-8886.851;-3239.544;0.0;0.0;1838.2656
2665.105;0.23417811;-0.4134113;481.0458;-9367.2295;-8886.184;-3241.971;0.0;0.0;1838.2656
2665.11;0.23427093;-0.41415858;481.4613;-9367.021;-8885.561;-3246.923;0.0;0.0;1838.2656
2665.115;0.23437992;-0.41547665;481.92712;-9367.181;-8885.254;-3255.1235;0.0;0.0;1838.2656
2665.12;0.23449461;-0.41747648;482.40613;-9367.912;-8885.506;-3267.11;0.0;0.0;1838.2656
2665.125;0.23460665;-0.4202868;482.85364;-9369.479;-8886.625;-3283.5037;0.0;0.0;1838.2656
2665.13;0.23470303;-0.42381477;483.22614;-9371.684;-8888.457;-3303.7046;0.0;0.0;1838.2656
2665.135;0.23477608;-0.42739257;483.49057;-9373.754;-8890.264;-3323.9644;0.0;0.0;1838.2656
2665.14;0.23481862;-0.43148506;483.6258;-9376.427;-8892.801;-3346.804;0.0;0.0;1838.2656
2665.145;0.23482841;-0.4353552;483.62384;-9378.792;-8895.168;-3368.143;0.0;0.0;1838.2656
2665.15;0.23480494;-0.4388471;483.49588;-9380.617;-8897.121;-3387.1443;0.0;0.0;1838.2656
2665.155;0.23475473;-0.44213194;483.2638;-9382.445;-8899.182;-3404.7954;0.0;0.0;1838.2656
2665.16;0.23468274;-0.444757;482.95264;-9383.711;-8900.758;-3418.65;0.0;0.0;1838.2656
2665.165;0.23459613;-0.44719172;482.5965;-9385.182;-8902.585;-3431.3645;0.0;0.0;1838.2656
2665.17;0.23450446;-0.4489769;482.22122;-9386.221;-8903.999;-3440.4587;0.0;0.0;1838.2656
2665.175;0.23441045;-0.45015654;481.85114;-9386.83;-8904.979;-3446.224;0.0;0.0;1838.2656
2665.18;0.23432316;-0.45067853;481.5131;-9387.018;-8905.505;-3448.4268;0.0;0.0;1838.2656
2665.185;0.2342463;-0.450772;481.2188;-9386.973;-8905.754;-3448.3538;0.0;0.0;1838.2656
2665.19;0.23418137;-0.45032343;480.9835;-9386.529;-8905.546;-3445.4092;0.0;0.0;1838.2656
2665.195;0.23413402;-0.4495657;480.8189;-9386.012;-8905.192;-3440.9014;0.0;0.0;1838.2656
2665.2;0.23410417;-0.44851032;480.72614;-9385.257;-8904.53;-3434.8955;0.0;0.0;1838.2656
2665.205;0.23409171;-0.44749182;480.70453;-9384.736;-8904.032;-3429.2356;0.0;0.0;1838.2656
2665.21;0.2340962;-0.4463392;480.74835;-9384.131;-8903.383;-3422.9666;0.0;0.0;1838.2656
2665.215;0.23411512;-0.44514215;480.84955;-9383.375;-8902.525;-3416.5676;0.0;0.0;1838.2656
2665.22;0.23414658;-0.44396025;480.9954;-9382.691;-8901.696;-3410.3413;0.0;0.0;1838.2656
2665.225;0.23418601;-0.4431334;481.16455;-9382.517;-8901.352;-3406.1199;0.0;0.0;1838.2656
2665.23;0.23422748;-0.44254276;481.33917;-9382.484;-8901.1455;-3403.2117;0.0;0.0;1838.2656
2665.235;0.23426814;-0.44202203;481.4979;-9382.433;-8900.935;-3400.6575;0.0;0.0;1838.2656
2665.24;0.23430058;-0.441645;481.61752;-9382.557;-8900.939;-3398.8176;0.0;0.0;1838.2656
2665.245;0.23432133;-0.44148815;481.6848;-9382.9375;-8901.253;-3398.087;0.0;0.0;1838.2656
2665.25;0.23432775;-0.44134718;481.69345;-9383.4375;-8901.744;-3397.327;0.0;0.0;1838.2656
2665.255;0.23432;-0.44114095;481.64166;-9383.747;-8902.105;-3396.086;0.0;0.0;1838.2656
2665.26;0.23429754;-0.44077942;481.53537;-9383.936;-8902.4;-3393.8796;0.0;0.0;1838.2656
2665.265;0.23426414;-0.4400654;481.3887;-9383.678;-8902.289;-3389.649;0.0;0.0;1838.2656
2665.27;0.23422334;-0.43922275;481.21613;-9383.49;-8902.274;-3384.6565;0.0;0.0;1838.2656
2665.275;0.23417863;-0.43816665;481.0391;-9383.139;-8902.1;-3378.4783;0.0;0.0;1838.2656
2665.28;0.23413712;-0.43683898;480.87872;-9382.461;-8901.582;-3370.8357;0.0;0.0;1838.2656
2665.285;0.23410183;-0.43538192;480.74905;-9381.82;-8901.071;-3362.5408;0.0;0.0;1838.2656
2665.29;0.23407626;-0.43388596;480.66116;-9381.198;-8900.537;-3354.1152;0.0;0.0;1838.2656
2665.295;0.23406209;-0.43206102;480.62524;-9380.106;-8899.481;-3343.9792;0.0;0.0;1838.2656
2665.3;0.23406233;-0.4304968;480.64496;-9379.354;-8898.709;-3335.3926;0.0;0.0;1838.2656
2665.305;0.23407541;-0.42907885;480.7238;-9378.824;-8898.101;-3327.7302;0.0;0.0;1838.2656
2665.31;0.23410408;-0.4277962;480.85962;-9378.22;-8897.36;-3320.9285;0.0;0.0;1838.2656
2665.315;0.23414385;-0.42666292;481.0393;-9377.722;-8896.683;-3315.0378;0.0;0.0;1838.2656
2665.32;0.23419261;-0.4260469;481.24768;-9377.664;-8896.416;-3312.0574;0.0;0.0;1838.2656
2665.325;0.23424447;-0.425834;481.45306;-9378.209;-8896.756;-3311.2942;0.0;0.0;1838.2656
2665.33;0.23428999;-0.4256356;481.6268;-9378.346;-8896.719;-3310.5476;0.0;0.0;1838.2656
2665.335;0.23432454;-0.4255719;481.74646;-9378.437;-8896.69;-3310.4355;0.0;0.0;1838.2656
2665.34;0.23434284;-0.4257108;481.799;-9378.762;-8896.963;-3311.3066;0.0;0.0;1838.2656
2665.345;0.23434454;-0.42598262;481.78787;-9379.286;-8897.498;-3312.7834;0.0;0.0;1838.2656
2665.35;0.23433258;-0.42627022;481.72812;-9379.753;-8898.024;-3314.25;0.0;0.0;1838.2656
2665.355;0.23431182;-0.42634588;481.64447;-9380.128;-8898.483;-3314.4998;0.0;0.0;1838.2656
2665.36;0.23428988;-0.4264534;481.56683;-9380.453;-8898.887;-3314.9375;0.0;0.0;1838.2656
2665.365;0.23427327;-0.42640647;481.52243;-9380.673;-8899.15;-3314.5898;0.0;0.0;1838.2656
2665.37;0.23426865;-0.42634186;481.52856;-9380.811;-8899.282;-3314.2458;0.0;0.0;1838.2656
2665.375;0.23427704;-0.4264489;481.58823;-9381.375;-8899.787;-3314.9556;0.0;0.0;1838.2656
2665.38;0.23429872;-0.42646608;481.70404;-9381.561;-8899.856;-3315.2817;0.0;0.0;1838.2656
2665.385;0.23433383;-0.42667112;481.87103;-9382.055;-8900.184;-3316.7466;0.0;0.0;1838.2656
2665.39;0.23437981;-0.42730063;482.07382;-9382.913;-8900.839;-3320.6238;0.0;0.0;1838.2656
2665.395;0.23443109;-0.42822787;482.30008;-9384.228;-8901.928;-3326.19;0.0;0.0;1838.2656
2665.4;0.23448707;-0.42940623;482.52502;-9385.748;-8903.223;-3333.1382;0.0;0.0;1838.2656
2665.405;0.23453604;-0.43083155;482.7216;-9387.369;-8904.647;-3341.3916;0.0;0.0;1838.2656
2665.41;0.23457623;-0.4321675;482.8657;-9388.685;-8905.819;-3349.0474;0.0;0.0;1838.2656
2665.415;0.23459794;-0.43353078;482.92535;-9390.02;-8907.094;-3356.6848;0.0;0.0;1838.2656
2665.42;0.23459572;-0.43507478;482.8761;-9391.713;-8908.837;-3365.101;0.0;0.0;1838.2656
2665.425;0.23456368;-0.43608254;482.70404;-9392.75;-8910.046;-3370.3147;0.0;0.0;1838.2656
2665.43;0.23450235;-0.43700635;482.41815;-9393.99;-8911.572;-3374.8376;0.0;0.0;1838.2656
2665.435;0.23441622;-0.43741402;482.0415;-9394.854;-8912.8125;-3376.3325;0.0;0.0;1838.2656
2665.44;0.23431285;-0.43726954;481.608;-9395.363;-8913.755;-3374.6687;0.0;0.0;1838.2656
2665.445;0.23420186;-0.43660167;481.16278;-9395.504;-8914.341;-3370.095;0.0;0.0;1838.2656
2665.45;0.2340954;-0.43533513;480.75198;-9395.213;-8914.461;-3362.2888;0.0;0.0;1838.2656
2665.455;0.23400359;-0.43341988;480.4097;-9394.374;-8913.964;-3351.042;0.0;0.0;1838.2656
2665.46;0.23393233;-0.43115118;480.15906;-9393.232;-8913.073;-3338.0293;0.0;0.0;1838.2656
2665.465;0.2338863;-0.42875475;480.01477;-9392.096;-8912.081;-3324.525;0.0;0.0;1838.2656
2665.47;0.23386705;-0.42614192;479.9785;-9390.617;-8910.639;-3310.043;0.0;0.0;1838.2656
2665.475;0.23387338;-0.42358118;480.04196;-9389.31;-8909.268;-3296.048;0.0;0.0;1838.2656
2665.48;0.2339021;-0.4213171;480.1906;-9388.261;-8908.07;-3283.8594;0.0;0.0;1838.2656
2665.485;0.23394877;-0.41946885;480.40082;-9387.57;-8907.17;-3274.0872;0.0;0.0;1838.2656
2665.49;0.234006;-0.41790742;480.6494;-9386.967;-8906.317;-3265.9734;0.0;0.0;1838.2656
2665.495;0.23407;-0.41657853;480.91748;-9386.363;-8905.445;-3259.181;0.0;0.0;1838.2656
2665.5;0.23413512;-0.4158945;481.18542;-9386.358;-8905.173;-3255.9446;0.0;0.0;1838.2656
2665.505;0.23419783;-0.41574496;481.4372;-9386.813;-8905.376;-3255.6235;0.0;0.0;1838.2656
2665.51;0.23425381;-0.41601548;481.65594;-9387.523;-8905.867;-3257.5527;0.0;0.0;1838.2656
2665.515;0.23429929;-0.41660455;481.83044;-9388.52;-8906.689;-3261.1504;0.0;0.0;1838.2656
2665.52;0.23433295;-0.41709843;481.95184;-9389.023;-8907.071;-3264.117;0.0;0.0;1838.2656
2665.525;0.23435204;-0.41797873;482.01117;-9389.839;-8907.828;-3269.0903;0.0;0.0;1838.2656
2665.53;0.23435527;-0.41908836;482.00702;-9390.964;-8908.957;-3275.2012;0.0;0.0;1838.2656
2665.535;0.23434392;-0.4200751;481.9461;-9391.856;-8909.91;-3280.521;0.0;0.0;1838.2656
2665.54;0.23432;-0.42088473;481.83746;-9392.359;-8910.521;-3284.7688;0.0;0.0;1838.2656
2665.545;0.23428647;-0.4216223;481.69995;-9392.884;-8911.184;-3288.5613;0.0;0.0;1838.2656
2665.55;0.23424964;-0.42249942;481.55075;-9393.716;-8912.165;-3293.0999;0.0;0.0;1838.2656
2665.555;0.23421155;-0.42298803;481.40582;-9394.118;-8912.712;-3295.5046;0.0;0.0;1838.2656
2665.56;0.23417787;-0.42315456;481.28015;-9393.854;-8912.573;-3296.1719;0.0;0.0;1838.2656
2665.565;0.23415016;-0.42334935;481.18854;-9393.895;-8912.706;-3297.0627;0.0;0.0;1838.2656
2665.57;0.23413378;-0.4236453;481.14362;-9394.167;-8913.023;-3298.605;0.0;0.0;1838.2656
2665.575;0.23412926;-0.42390436;481.14743;-9394.314;-8913.167;-3300.0413;0.0;0.0;1838.2656
2665.58;0.23413676;-0.42449492;481.2055;-9394.863;-8913.658;-3303.4143;0.0;0.0;1838.2656
2665.585;0.23415852;-0.4249927;481.31915;-9395.249;-8913.93;-3306.3867;0.0;0.0;1838.2656
2665.59;0.23419261;-0.42548397;481.48245;-9395.285;-8913.803;-3309.4226;0.0;0.0;1838.2656
2665.595;0.23423758;-0.42656946;481.68475;-9396.152;-8914.468;-3315.8135;0.0;0.0;1838.2656
2665.6;0.23428945;-0.42792803;481.9084;-9397.197;-8915.289;-3323.753;0.0;0.0;1838.2656
2665.605;0.23434317;-0.42951486;482.12888;-9398.271;-8916.143;-3332.9448;0.0;0.0;1838.2656
2665.61;0.23439166;-0.43136024;482.3211;-9399.584;-8917.263;-3343.5063;0.0;0.0;1838.2656
2665.615;0.2344299;-0.43348762;482.46136;-9401.025;-8918.564;-3355.519;0.0;0.0;1838.2656
2665.62;0.23445173;-0.43555087;482.5263;-9402.342;-8919.815;-3367.027;0.0;0.0;1838.2656
2665.625;0.23445256;-0.43774882;482.50055;-9403.883;-8921.382;-3379.097;0.0;0.0;1838.2656
2665.63;0.23442987;-0.43976834;482.37738;-9405.222;-8922.845;-3389.9878;0.0;0.0;1838.2656
2665.635;0.2343836;-0.44132665;482.15863;-9406.075;-8923.917;-3398.144;0.0;0.0;1838.2656
2665.64;0.23431516;-0.442551;481.8511;-9406.644;-8924.792;-3404.281;0.0;0.0;1838.2656
2665.645;0.23422697;-0.44332424;481.4694;-9407.031;-8925.562;-3407.782;0.0;0.0;1838.2656
2665.65;0.23412398;-0.44351238;481.03348;-9407.001;-8925.968;-3407.9478;0.0;0.0;1838.2656
2665.655;0.2340113;-0.44300026;480.5686;-9406.455;-8925.887;-3404.1936;0.0;0.0;1838.2656
2665.66;0.23389632;-0.44179615;480.10135;-9405.359;-8925.258;-3396.6187;0.0;0.0;1838.2656
2665.665;0.23378435;-0.43994367;479.65994;-9403.668;-8924.008;-3385.5198;0.0;0.0;1838.2656
2665.67;0.23368369;-0.4376348;479.2633;-9401.998;-8922.734;-3371.9937;0.0;0.0;1838.2656
2665.675;0.23359513;-0.43482926;478.9278;-9400.018;-8921.09;-3355.8508;0.0;0.0;1838.2656
2665.68;0.23352528;-0.43159276;478.6685;-9397.779;-8919.11;-3337.4834;0.0;0.0;1838.2656
2665.685;0.23347446;-0.42809418;478.48627;-9395.365;-8916.879;-3317.825;0.0;0.0;1838.2656
2665.69;0.23344237;-0.42440814;478.3807;-9392.725;-8914.344;-3297.2861;0.0;0.0;1838.2656
2665.695;0.23342872;-0.42067182;478.34027;-9390.152;-8911.8125;-3276.6;0.0;0.0;1838.2656
2665.7;0.23342806;-0.4168411;478.35376;-9387.421;-8909.067;-3255.5015;0.0;0.0;1838.2656
2665.705;0.23344062;-0.41303805;478.41782;-9384.567;-8906.149;-3234.6565;0.0;0.0;1838.2656
2665.71;0.2334646;-0.40946758;478.5355;-9381.992;-8903.457;-3215.2014;0.0;0.0;1838.2656
2665.715;0.23350343;-0.406136;478.71542;-9379.491;-8900.775;-3197.1885;0.0;0.0;1838.2656
2665.72;0.23355779;-0.4032805;478.96274;-9377.391;-8898.428;-3181.9355;0.0;0.0;1838.2656
2665.725;0.23362905;-0.4010217;479.2785;-9375.835;-8896.557;-3170.1104;0.0;0.0;1838.2656
2665.73;0.23371555;-0.39903882;479.65338;-9374.152;-8894.499;-3159.9248;0.0;0.0;1838.2656
2665.735;0.2338141;-0.39776844;480.0704;-9373.084;-8893.014;-3153.753;0.0;0.0;1838.2656
2665.74;0.23391877;-0.3972694;480.49792;-9372.552;-8892.054;-3151.856;0.0;0.0;1838.2656
2665.745;0.23401988;-0.3974845;480.90466;-9372.577;-8891.673;-3153.8557;0.0;0.0;1838.2656
2665.75;0.23411223;-0.39796346;481.25803;-9372.467;-8891.209;-3157.2039;0.0;0.0;1838.2656
2665.755;0.23418552;-0.39893457;481.53372;-9372.695;-8891.161;-3163.1106;0.0;0.0;1838.2656
2665.76;0.23423912;-0.40053076;481.7217;-9373.6;-8891.878;-3172.289;0.0;0.0;1838.2656
2665.765;0.23426947;-0.40220279;481.82593;-9374.285;-8892.459;-3181.7185;0.0;0.0;1838.2656
2665.77;0.23428291;-0.40413076;481.86493;-9375.342;-8893.477;-3192.429;0.0;0.0;1838.2656
2665.775;0.23428288;-0.40608835;481.86176;-9376.313;-8894.452;-3203.2183;0.0;0.0;1838.2656
2665.78;0.23427741;-0.40782052;481.8509;-9376.932;-8895.081;-3212.7493;0.0;0.0;1838.2656
2665.785;0.23427497;-0.40987363;481.85962;-9377.923;-8896.063;-3224.089;0.0;0.0;1838.2656
2665.79;0.23427953;-0.41186407;481.90222;-9378.923;-8897.0205;-3235.1511;0.0;0.0;1838.2656
2665.795;0.23429354;-0.4143659;481.98016;-9380.779;-8898.799;-3249.104;0.0;0.0;1838.2656
2665.8;0.23431407;-0.41652474;482.07086;-9381.989;-8899.918;-3261.191;0.0;0.0;1838.2656
2665.805;0.23433253;-0.41864482;482.1413;-9383.057;-8900.915;-3273.0237;0.0;0.0;1838.2656
2665.81;0.2343414;-0.42074797;482.15796;-9384.008;-8901.85;-3284.6555;0.0;0.0;1838.2656
2665.815;0.23433217;-0.42282152;482.0869;-9385.172;-8903.085;-3295.9487;0.0;0.0;1838.2656
2665.82;0.23429774;-0.42462006;481.91306;-9386.091;-8904.178;-3305.5195;0.0;0.0;1838.2656
2665.825;0.23423909;-0.4261197;481.64316;-9386.793;-8905.149;-3313.2498;0.0;0.0;1838.2656
2665.83;0.23415919;-0.4272329;481.2989;-9387.401;-8906.103;-3318.7004;0.0;0.0;1838.2656
2665.835;0.23406681;-0.42772415;480.9156;-9387.359;-8906.443;-3320.643;0.0;0.0;1838.2656
2665.84;0.23397042;-0.42772;480.53546;-9386.998;-8906.463;-3319.8599;0.0;0.0;1838.2656
2665.845;0.2338823;-0.42737046;480.20367;-9386.584;-8906.38;-3317.2686;0.0;0.0;1838.2656
2665.85;0.23381172;-0.42647687;479.9478;-9385.643;-8905.694;-3311.8289;0.0;0.0;1838.2656
2665.855;0.23376222;-0.42538124;479.7927;-9384.672;-8904.879;-3305.4766;0.0;0.0;1838.2656
2665.86;0.23374167;-0.4242562;479.7529;-9383.689;-8903.937;-3299.1926;0.0;0.0;1838.2656
2665.865;0.23374833;-0.42328882;479.82016;-9383.017;-8903.196;-3293.9922;0.0;0.0;1838.2656
2665.87;0.2337792;-0.4224342;479.9806;-9382.268;-8902.287;-3289.6;0.0;0.0;1838.2656
2665.875;0.23382993;-0.42179877;480.21198;-9381.666;-8901.454;-3286.5586;0.0;0.0;1838.2656
2665.88;0.23389375;-0.42143372;480.48755;-9381.078;-8900.591;-3285.0964;0.0;0.0;1838.2656
2665.885;0.233964;-0.421588;480.77847;-9381.0;-8900.222;-3286.529;0.0;0.0;1838.2656
2665.89;0.2340337;-0.42230326;481.06006;-9381.496;-8900.436;-3291.0369;0.0;0.0;1838.2656
2665.895;0.23409806;-0.42325866;481.31268;-9381.95;-8900.638;-3296.8108;0.0;0.0;1838.2656
2665.9;0.23415257;-0.42460525;481.52576;-9382.658;-8901.133;-3304.6633;0.0;0.0;1838.2656
2665.905;0.23419717;-0.42610833;481.6985;-9383.324;-8901.626;-3313.2979;0.0;0.0;1838.2656
2665.91;0.23423167;-0.42790037;481.82687;-9384.373;-8902.546;-3323.4373;0.0;0.0;1838.2656
2665.915;0.23425448;-0.42997748;481.91132;-9385.668;-8903.757;-3335.061;0.0;0.0;1838.2656
2665.92;0.2342672;-0.43200612;481.9494;-9386.726;-8904.776;-3346.325;0.0;0.0;1838.2656
2665.925;0.23426725;-0.43391708;481.9372;-9387.623;-8905.686;-3356.8389;0.0;0.0;1838.2656
2665.93;0.23425537;-0.43596628;481.87036;-9388.889;-8907.019;-3368.006;0.0;0.0;1838.2656
2665.935;0.23422891;-0.43775526;481.74097;-9389.969;-8908.228;-3377.6133;0.0;0.0;1838.2656
2665.94;0.23418689;-0.43916798;481.55093;-9390.508;-8908.957;-3385.024;0.0;0.0;1838.2656
2665.945;0.23413163;-0.44024476;481.30786;-9390.855;-8909.548;-3390.4763;0.0;0.0;1838.2656
2665.95;0.23406501;-0.44103748;481.0254;-9391.215;-8910.189;-3394.2827;0.0;0.0;1838.2656
2665.955;0.23399201;-0.44137743;480.72415;-9391.175;-8910.45;-3395.5552;0.0;0.0;1838.2656
2665.96;0.2339182;-0.4412586;480.43597;-9390.854;-8910.418;-3394.3235;0.0;0.0;1838.2656
2665.965;0.23385353;-0.44084665;480.18985;-9390.491;-8910.302;-3391.5596;0.0;0.0;1838.2656
2665.97;0.23380195;-0.44013885;480.01038;-9389.875;-8909.864;-3387.297;0.0;0.0;1838.2656
2665.975;0.23377097;-0.43928486;479.92462;-9389.258;-8909.333;-3382.416;0.0;0.0;1838.2656
2665.98;0.23376542;-0.4385231;479.93884;-9388.994;-8909.056;-3378.2437;0.0;0.0;1838.2656
2665.985;0.23378277;-0.43766582;480.0485;-9388.388;-8908.339;-3373.735;0.0;0.0;1838.2656
2665.99;0.23382257;-0.43696007;480.23843;-9387.924;-8907.686;-3370.223;0.0;0.0;1838.2656
2665.995;0.23387761;-0.4365743;480.4868;-9387.871;-8907.385;-3368.5923;0.0;0.0;1838.2656
2666.0;0.2339441;-0.43667328;480.7638;-9388.135;-8907.371;-3369.692;0.0;0.0;1838.2656
2666.005;0.23401122;-0.4370323;481.04834;-9388.558;-8907.51;-3372.241;0.0;0.0;1838.2656
2666.01;0.23407996;-0.43786696;481.3302;-9389.301;-8907.971;-3377.4077;0.0;0.0;1838.2656
2666.015;0.2341443;-0.43902788;481.589;-9390.268;-8908.679;-3384.3274;0.0;0.0;1838.2656
2666.02;0.23420064;-0.44040924;481.81125;-9391.305;-8909.493;-3392.3901;0.0;0.0;1838.2656
2666.025;0.23424634;-0.4424065;481.99054;-9392.904;-8910.914;-3403.7632;0.0;0.0;1838.2656
2666.03;0.23428087;-0.44440252;482.1229;-9394.271;-8912.148;-3415.0354;0.0;0.0;1838.2656
2666.035;0.23430315;-0.44642782;482.20398;-9395.525;-8913.321;-3426.3667;0.0;0.0;1838.2656
2666.04;0.23431234;-0.44869736;482.23273;-9397.102;-8914.869;-3438.9402;0.0;0.0;1838.2656
2666.045;0.23430918;-0.4510631;482.21326;-9398.674;-8916.461;-3451.948;0.0;0.0;1838.2656
2666.05;0.2342949;-0.45340836;482.15338;-9400.282;-8918.129;-3464.7617;0.0;0.0;1838.2656
2666.055;0.2342726;-0.45543838;482.06055;-9401.334;-8919.273;-3475.7712;0.0;0.0;1838.2656
2666.06;0.2342427;-0.45724624;481.94348;-9402.119;-8920.176;-3485.507;0.0;0.0;1838.2656
2666.065;0.23420925;-0.45914978;481.81448;-9403.352;-8921.537;-3495.7466;0.0;0.0;1838.2656
2666.07;0.23417427;-0.46088943;481.68353;-9404.388;-8922.704;-3505.0786;0.0;0.0;1838.2656
2666.075;0.23414022;-0.46229872;481.5559;-9405.007;-8923.451;-3512.5952;0.0;0.0;1838.2656
2666.08;0.23410735;-0.4635697;481.43582;-9405.622;-8924.187;-3519.3645;0.0;0.0;1838.2656
2666.085;0.23407719;-0.46448854;481.32953;-9405.757;-8924.428;-3524.219;0.0;0.0;1838.2656
2666.09;0.23405108;-0.46537966;481.22882;-9406.135;-8924.906;-3528.932;0.0;0.0;1838.2656
2666.095;0.23402365;-0.4661007;481.12793;-9406.381;-8925.253;-3532.7065;0.0;0.0;1838.2656
2666.1;0.23399737;-0.46678877;481.02545;-9406.92;-8925.895;-3536.2961;0.0;0.0;1838.2656
2666.105;0.23396905;-0.46728435;480.90845;-9407.234;-8926.326;-3538.7952;0.0;0.0;1838.2656
2666.11;0.23393567;-0.46740535;480.77014;-9407.227;-8926.456;-3539.1858;0.0;0.0;1838.2656
2666.115;0.233897;-0.4673998;480.6086;-9407.379;-8926.7705;-3538.8323;0.0;0.0;1838.2656
