time;temperature;pressure;kinetic_energy;potential_energy;total_energy;virial;msd;diffusion;volume
2540.005;0.28474703;-0.30224317;585.73975;-9283.02;-8697.279;-2838.2893;0.0;0.0;1838.2656
2540.01;0.28473866;-0.3039317;585.68884;-9284.421;-8698.732;-2847.4993;0.0;0.0;1838.2656
2540.015;0.28471676;-0.30537415;585.5915;-9285.558;-8699.966;-2855.2593;0.0;0.0;1838.2656
2540.02;0.28468713;-0.3068661;585.4761;-9286.877;-8701.4;-2863.2563;0.0;0.0;1838.2656
2540.025;0.28465798;-0.30801734;585.3682;-9287.637;-8702.269;-2869.3896;0.0;0.0;1838.2656
2540.03;0.2846334;-0.30917153;585.2883;-9288.649;-8703.361;-2875.5947;0.0;0.0;1838.2656
2540.035;0.28461832;-0.31014538;585.2472;-9289.445;-8704.198;-2880.883;0.0;0.0;1838.2656
2540.04;0.2846122;-0.3109911;585.22736;-9290.226;-8704.998;-2885.5076;0.0;0.0;1838.2656
2540.045;0.2846065;-0.3118006;585.2009;-9290.916;-8705.715;-2889.9187;0.0;0.0;1838.2656
2540.05;0.2845956;-0.3126296;585.1379;-9291.974;-8706.836;-2894.3645;0.0;0.0;1838.2656
2540.055;0.28457072;-0.31308386;584.99854;-9292.514;-8707.516;-2896.591;0.0;0.0;1838.2656
2540.06;0.28452194;-0.31312472;584.75903;-9292.902;-8708.144;-2896.3374;0.0;0.0;1838.2656
2540.065;0.2844492;-0.31272015;584.4219;-9292.99;-8708.568;-2893.432;0.0;0.0;1838.2656
2540.07;0.28435463;-0.3116674;584.01245;-9292.493;-8708.48;-2886.8074;0.0;0.0;1838.2656
2540.075;0.28425008;-0.3097525;583.5835;-9291.207;-8707.623;-2875.3892;0.0;0.0;1838.2656
2540.08;0.28414962;-0.30747548;583.1882;-9289.859;-8706.671;-2862.041;0.0;0.0;1838.2656
2540.085;0.28406462;-0.30455258;582.8805;-9287.969;-8705.088;-2845.3066;0.0;0.0;1838.2656
2540.09;0.28400874;-0.30130497;582.69574;-9285.854;-8703.158;-2827.027;0.0;0.0;1838.2656
2540.095;0.28398424;-0.2980908;582.6397;-9284.063;-8701.424;-2809.1895;0.0;0.0;1838.2656
2540.1;0.2839898;-0.2947372;582.68677;-9282.218;-8699.531;-2790.7893;0.0;0.0;1838.2656
2540.105;0.28401327;-0.2916595;582.7912;-9280.693;-8697.902;-2774.0254;0.0;0.0;1838.2656
2540.11;0.28404385;-0.2889085;582.911;-9279.678;-8696.767;-2759.0938;0.0;0.0;1838.2656
2540.115;0.2840726;-0.28608167;583.00354;-9278.373;-8695.369;-2743.6895;0.0;0.0;1838.2656
2540.12;0.2840884;-0.28323987;583.0459;-9277.0;-8693.954;-2728.1023;0.0;0.0;1838.2656
2540.125;0.28409243;-0.28057757;583.04346;-9275.811;-8692.768;-2713.4153;0.0;0.0;1838.2656
2540.13;0.28408697;-0.27779222;583.0069;-9274.46;-8691.453;-2697.9814;0.0;0.0;1838.2656
2540.135;0.28407583;-0.27484146;582.9619;-9272.728;-8689.766;-2681.6187;0.0;0.0;1838.2656
2540.14;0.28406757;-0.2719931;582.9388;-9271.133;-8688.194;-2665.8643;0.0;0.0;1838.2656
2540.145;0.28406835;-0.26928738;582.9554;-9269.768;-8686.8125;-2650.976;0.0;0.0;1838.2656
2540.15;0.28407997;-0.26667818;583.022;-9268.301;-8685.279;-2636.72;0.0;0.0;1838.2656
2540.155;0.2841052;-0.26449054;583.1438;-9267.26;-8684.116;-2624.8992;0.0;0.0;1838.2656
2540.16;0.2841431;-0.26249376;583.31415;-9266.282;-8682.968;-2614.228;0.0;0.0;1838.2656
2540.165;0.2841913;-0.2609187;583.5243;-9265.477;-8681.952;-2605.9622;0.0;0.0;1838.2656
2540.17;0.28424737;-0.25975427;583.7655;-9264.873;-8681.107;-2600.023;0.0;0.0;1838.2656
2540.175;0.2843099;-0.25934634;584.0351;-9265.094;-8681.059;-2598.3125;0.0;0.0;1838.2656
2540.18;0.28437915;-0.25906703;584.34607;-9264.902;-8680.557;-2597.3943;0.0;0.0;1838.2656
2540.185;0.28446102;-0.2594946;584.6992;-9265.434;-8680.734;-2600.4585;0.0;0.0;1838.2656
2540.19;0.2845492;-0.2606326;585.08374;-9266.379;-8681.295;-2607.5034;0.0;0.0;1838.2656
2540.195;0.2846439;-0.2620189;585.48016;-9267.177;-8681.696;-2615.9412;0.0;0.0;1838.2656
2540.2;0.2847346;-0.2642746;585.83606;-9268.899;-8683.063;-2629.0928;0.0;0.0;1838.2656
2540.205;0.28480563;-0.2667541;586.09393;-9270.568;-8684.475;-2643.2825;0.0;0.0;1838.2656
2540.21;0.2848458;-0.26965994;586.21204;-9272.649;-8686.4375;-2659.544;0.0;0.0;1838.2656
2540.215;0.28484702;-0.27270293;586.157;-9274.912;-8688.755;-2676.2153;0.0;0.0;1838.2656
2540.22;0.28480318;-0.27527648;585.9249;-9276.541;-8690.616;-2689.9436;0.0;0.0;1838.2656
2540.225;0.28471982;-0.27748746;585.53674;-9277.859;-8692.322;-2701.3604;0.0;0.0;1838.2656
2540.23;0.28460273;-0.27884004;585.0216;-9278.378;-8693.356;-2707.7893;0.0;0.0;1838.2656
2540.235;0.28446102;-0.27949005;584.42993;-9278.329;-8693.899;-2710.1907;0.0;0.0;1838.2656
2540.24;0.28431064;-0.2793368;583.8188;-9277.705;-8693.887;-2708.1233;0.0;0.0;1838.2656
2540.245;0.28416345;-0.27849573;583.2389;-9276.627;-8693.388;-2702.3252;0.0;0.0;1838.2656
2540.25;0.2840318;-0.27715388;582.74146;-9275.283;-8692.542;-2693.9302;0.0;0.0;1838.2656
2540.255;0.28392723;-0.2750886;582.3604;-9273.375;-8691.015;-2681.7786;0.0;0.0;1838.2656
2540.26;0.28385454;-0.27289185;582.1175;-9271.493;-8689.376;-2669.1782;0.0;0.0;1838.2656
2540.265;0.28381774;-0.27032945;582.0217;-9269.338;-8687.316;-2654.8555;0.0;0.0;1838.2656
2540.27;0.28381687;-0.26791865;582.06696;-9267.295;-8685.228;-2641.651;0.0;0.0;1838.2656
2540.275;0.28384754;-0.2655928;582.23096;-9265.318;-8683.088;-2629.1523;0.0;0.0;1838.2656
2540.28;0.28390315;-0.26358378;582.4894;-9263.532;-8681.043;-2618.5896;0.0;0.0;1838.2656
2540.285;0.28397784;-0.26195863;582.8185;-9262.125;-8679.307;-2610.2856;0.0;0.0;1838.2656
2540.29;0.2840659;-0.26097706;583.18365;-9261.205;-8678.021;-2605.6028;0.0;0.0;1838.2656
2540.295;0.28415528;-0.26055676;583.5435;-9260.914;-8677.37;-2604.0046;0.0;0.0;1838.2656
2540.3;0.28423846;-0.26056382;583.8636;-9260.823;-8676.96;-2604.6836;0.0;0.0;1838.2656
2540.305;0.28430668;-0.2608984;584.1105;-9260.867;-8676.757;-2607.0227;0.0;0.0;1838.2656
2540.31;0.2843532;-0.26147476;584.2717;-9261.106;-8676.835;-2610.5237;0.0;0.0;1838.2656
2540.315;0.2843802;-0.2621207;584.36145;-9261.165;-8676.804;-2614.2654;0.0;0.0;1838.2656
2540.32;0.28439307;-0.26299644;584.4094;-9261.371;-8676.962;-2619.1907;0.0;0.0;1838.2656
2540.325;0.2844016;-0.2640322;584.4622;-9261.726;-8677.264;-2625.0085;0.0;0.0;1838.2656
2540.33;0.28441837;-0.2651644;584.5548;-9262.079;-8677.524;-2631.4375;0.0;0.0;1838.2656
2540.335;0.28444678;-0.2666707;584.7085;-9262.708;-8678.0;-2640.0518;0.0;0.0;1838.2656
2540.34;0.28449294;-0.26846907;584.9294;-9263.563;-8678.634;-2650.4111;0.0;0.0;1838.2656
2540.345;0.28455225;-0.2705635;585.195;-9264.508;-8679.3125;-2662.4927;0.0;0.0;1838.2656
2540.35;0.28461787;-0.2730237;585.477;-9265.533;-8680.057;-2676.6243;0.0;0.0;1838.2656
2540.355;0.28468233;-0.27605072;585.73816;-9267.068;-8681.33;-2693.84;0.0;0.0;1838.2656
2540.36;0.28473544;-0.27921727;585.9352;-9268.453;-8682.518;-2711.697;0.0;0.0;1838.2656
2540.365;0.2847672;-0.282864;586.0405;-9270.108;-8684.068;-2732.0186;0.0;0.0;1838.2656
2540.37;0.28477496;-0.28660145;586.0473;-9271.853;-8685.806;-2752.6433;0.0;0.0;1838.2656
2540.375;0.2847596;-0.2906063;585.969;-9273.927;-8687.958;-2774.5728;0.0;0.0;1838.2656
2540.38;0.2847275;-0.29425687;585.8296;-9275.369;-8689.539;-2794.426;0.0;0.0;1838.2656
2540.385;0.28468433;-0.29798576;585.6598;-9276.954;-8691.294;-2814.6504;0.0;0.0;1838.2656
2540.39;0.2846394;-0.301586;585.4895;-9278.386;-8692.896;-2834.1646;0.0;0.0;1838.2656
2540.395;0.28459716;-0.30500224;585.3387;-9279.735;-8694.396;-2852.703;0.0;0.0;1838.2656
2540.4;0.28456232;-0.3082813;585.2155;-9280.809;-8695.593;-2870.5398;0.0;0.0;1838.2656
2540.405;0.28453305;-0.31127316;585.1022;-9281.522;-8696.42;-2886.8127;0.0;0.0;1838.2656
2540.41;0.2845026;-0.31437528;584.9812;-9282.564;-8697.583;-2903.6782;0.0;0.0;1838.2656
2540.415;0.2844688;-0.31708032;584.8415;-9283.0625;-8698.221;-2918.3167;0.0;0.0;1838.2656
2540.42;0.28442892;-0.3194753;584.667;-9283.295;-8698.628;-2931.1753;0.0;0.0;1838.2656
2540.425;0.28437832;-0.3216409;584.4538;-9283.395;-8698.94;-2942.692;0.0;0.0;1838.2656
2540.43;0.2843204;-0.32353166;584.2103;-9283.444;-8699.234;-2952.632;0.0;0.0;1838.2656
2540.435;0.2842562;-0.32493317;583.94946;-9283.053;-8699.104;-2959.8394;0.0;0.0;1838.2656
2540.44;0.28419083;-0.32605797;583.6864;-9282.578;-8698.892;-2965.5164;0.0;0.0;1838.2656
2540.445;0.2841266;-0.32666782;583.43256;-9281.689;-8698.257;-2968.3718;0.0;0.0;1838.2656
2540.45;0.28406635;-0.32670674;583.1964;-9280.44;-8697.244;-2968.114;0.0;0.0;1838.2656
2540.455;0.284012;-0.32659397;582.993;-9279.088;-8696.095;-2967.0852;0.0;0.0;1838.2656
2540.46;0.28396836;-0.32616124;582.8335;-9277.73;-8694.896;-2964.38;0.0;0.0;1838.2656
2540.465;0.2839368;-0.3257422;582.73975;-9276.629;-8693.889;-2961.8816;0.0;0.0;1838.2656
2540.47;0.2839262;-0.32481688;582.73285;-9274.936;-8692.203;-2956.765;0.0;0.0;1838.2656
2540.475;0.28393802;-0.3240786;582.8258;-9273.612;-8690.786;-2952.8792;0.0;0.0;1838.2656
2540.48;0.2839758;-0.3233952;583.0244;-9272.224;-8689.199;-2949.5076;0.0;0.0;1838.2656
2540.485;0.28403798;-0.3232493;583.3165;-9271.707;-8688.391;-2949.2874;0.0;0.0;1838.2656
2540.49;0.28411907;-0.32338452;583.66516;-9271.405;-8687.74;-2950.7302;0.0;0.0;1838.2656
2540.495;0.28420544;-0.32400542;584.01654;-9271.589;-8687.572;-2954.8572;0.0;0.0;1838.2656
2540.5;0.28428414;-0.32505834;584.3146;-9272.166;-8687.852;-2961.2598;0.0;0.0;1838.2656
2540.505;0.28434142;-0.3261078;584.5123;-9272.547;-8688.034;-2967.4429;0.0;0.0;1838.2656
2540.51;0.28436992;-0.32725695;584.58734;-9273.015;-8688.428;-2973.9302;0.0;0.0;1838.2656
2540.515;0.28436717;-0.32832304;584.5404;-9273.384;-8688.844;-2979.7158;0.0;0.0;1838.2656
2540.52;0.28433773;-0.3292776;584.4032;-9273.669;-8689.266;-2984.7056;0.0;0.0;1838.2656
2540.525;0.28429335;-0.33010826;584.22;-9274.02;-8689.8;-2988.92;0.0;0.0;1838.2656
2540.53;0.28424394;-0.33058336;584.0394;-9274.056;-8690.017;-2991.179;0.0;0.0;1838.2656
2540.535;0.28420305;-0.3306328;583.8992;-9273.572;-8689.673;-2991.1711;0.0;0.0;1838.2656
2540.54;0.28417465;-0.33062273;583.81323;-9273.3;-8689.486;-2990.9438;0.0;0.0;1838.2656
2540.545;0.2841603;-0.33070603;583.7819;-9273.348;-8689.565;-2991.3403;0.0;0.0;1838.2656
2540.55;0.2841578;-0.33063066;583.7865;-9273.166;-8689.38;-2990.934;0.0;0.0;1838.2656
2540.555;0.28415993;-0.3304277;583.80237;-9272.787;-8688.984;-2989.8464;0.0;0.0;1838.2656
2540.56;0.28416178;-0.33005378;583.8005;-9272.327;-8688.526;-2987.7805;0.0;0.0;1838.2656
2540.565;0.28415483;-0.3297463;583.7596;-9272.031;-8688.271;-2986.003;0.0;0.0;1838.2656
2540.57;0.28413764;-0.32928634;583.6743;-9271.667;-8687.992;-2983.296;0.0;0.0;1838.2656
2540.575;0.2841095;-0.32861552;583.5452;-9271.178;-8687.633;-2979.3381;0.0;0.0;1838.2656
2540.58;0.28407204;-0.327611;583.3874;-9270.328;-8686.94;-2973.483;0.0;0.0;1838.2656
2540.585;0.2840309;-0.32637435;583.2177;-9269.353;-8686.135;-2966.3237;0.0;0.0;1838.2656
2540.59;0.2839891;-0.32514617;583.0492;-9268.579;-8685.53;-2959.2134;0.0;0.0;1838.2656
2540.595;0.2839498;-0.32341293;582.8979;-9267.296;-8684.398;-2949.3523;0.0;0.0;1838.2656
2540.6;0.2839176;-0.3215968;582.7797;-9265.981;-8683.202;-2939.1006;0.0;0.0;1838.2656
2540.605;0.28389552;-0.31963435;582.70685;-9264.557;-8681.85;-2928.132;0.0;0.0;1838.2656
2540.61;0.283886;-0.317777;582.6863;-9263.297;-8680.61;-2917.8481;0.0;0.0;1838.2656
2540.615;0.28388986;-0.3159082;582.7221;-9262.002;-8679.28;-2907.6138;0.0;0.0;1838.2656
2540.62;0.28390804;-0.31433502;582.8204;-9261.051;-8678.23;-2899.1345;0.0;0.0;1838.2656
2540.625;0.2839427;-0.31308198;582.9923;-9260.41;-8677.418;-2892.568;0.0;0.0;1838.2656
2540.63;0.28399688;-0.31203374;583.23773;-9259.802;-8676.564;-2887.278;0.0;0.0;1838.2656
2540.635;0.28406677;-0.31125566;583.55774;-9259.141;-8675.583;-2883.6272;0.0;0.0;1838.2656
2540.64;0.28415596;-0.31112048;583.9479;-9259.007;-8675.059;-2883.662;0.0;0.0;1838.2656
2540.645;0.28425765;-0.31163076;584.3738;-9259.469;-8675.095;-2887.328;0.0;0.0;1838.2656
2540.65;0.28436124;-0.31260785;584.7976;-9260.209;-8675.411;-2893.564;0.0;0.0;1838.2656
2540.655;0.28445867;-0.31436265;585.1749;-9261.676;-8676.501;-2903.9958;0.0;0.0;1838.2656
2540.66;0.28453666;-0.31629387;585.465;-9262.883;-8677.418;-2915.2263;0.0;0.0;1838.2656
2540.665;0.2845897;-0.31861773;585.64624;-9264.657;-8679.011;-2928.4045;0.0;0.0;1838.2656
2540.67;0.28461388;-0.32112256;585.7144;-9266.543;-8680.828;-2942.3545;0.0;0.0;1838.2656
2540.675;0.28461212;-0.3235475;585.68494;-9268.225;-8682.54;-2955.6687;0.0;0.0;1838.2656
2540.68;0.28458944;-0.32576904;585.5724;-9269.755;-8684.183;-2967.6948;0.0;0.0;1838.2656
2540.685;0.2845484;-0.3279866;585.4004;-9271.526;-8686.126;-2979.5803;0.0;0.0;1838.2656
2540.69;0.28449777;-0.32952613;585.186;-9272.486;-8687.301;-2987.6416;0.0;0.0;1838.2656
2540.695;0.28443712;-0.33084992;584.9359;-9273.539;-8688.604;-2994.442;0.0;0.0;1838.2656
2540.7;0.2843703;-0.3317706;584.66345;-9274.304;-8689.641;-2998.9744;0.0;0.0;1838.2656
2540.705;0.28429985;-0.3323427;584.3807;-9274.92;-8690.539;-3001.564;0.0;0.0;1838.2656
2540.71;0.28422946;-0.3325298;584.10187;-9275.32;-8691.219;-3002.038;0.0;0.0;1838.2656
2540.715;0.28416246;-0.332075;583.84436;-9275.033;-8691.188;-2999.015;0.0;0.0;1838.2656
2540.72;0.28410387;-0.33134937;583.6185;-9274.627;-8691.009;-2994.5615;0.0;0.0;1838.2656
2540.725;0.28405353;-0.33030412;583.43823;-9273.9;-8690.462;-2988.4365;0.0;0.0;1838.2656
2540.73;0.28401822;-0.32905185;583.31934;-9273.184;-8689.864;-2981.2927;0.0;0.0;1838.2656
2540.735;0.283998;-0.3277611;583.2569;-9272.423;-8689.166;-2974.0498;0.0;0.0;1838.2656
2540.74;0.2839899;-0.326577;583.246;-9271.84;-8688.594;-2967.4978;0.0;0.0;1838.2656
2540.745;0.28399402;-0.32539308;583.275;-9271.279;-8688.004;-2961.0269;0.0;0.0;1838.2656
2540.75;0.28400457;-0.32451606;583.3285;-9271.046;-8687.718;-2956.297;0.0;0.0;1838.2656
2540.755;0.28401923;-0.3232287;583.3914;-9270.063;-8686.672;-2949.3235;0.0;0.0;1838.2656
2540.76;0.28403372;-0.32243934;583.4519;-9269.66;-8686.208;-2945.0913;0.0;0.0;1838.2656
2540.765;0.2840465;-0.32173902;583.50616;-9269.331;-8685.825;-2941.3376;0.0;0.0;1838.2656
2540.77;0.28405747;-0.32122597;583.5541;-9269.225;-8685.671;-2938.6042;0.0;0.0;1838.2656
2540.775;0.28406668;-0.32072628;583.58923;-9269.029;-8685.44;-2935.9187;0.0;0.0;1838.2656
2540.78;0.28407073;-0.3201631;583.6002;-9268.664;-8685.063;-2932.835;0.0;0.0;1838.2656
2540.785;0.28406745;-0.31964687;583.57983;-9268.357;-8684.777;-2929.9473;0.0;0.0;1838.2656
2540.79;0.28405577;-0.3190806;583.52277;-9268.031;-8684.509;-2926.7102;0.0;0.0;1838.2656
2540.795;0.28403458;-0.31843317;583.4203;-9267.604;-8684.184;-2922.9348;0.0;0.0;1838.2656
2540.8;0.28400198;-0.31753242;583.2842;-9266.892;-8683.607;-2917.695;0.0;0.0;1838.2656
2540.805;0.28396603;-0.31659698;583.1489;-9266.207;-8683.059;-2912.2659;0.0;0.0;1838.2656
2540.81;0.28393587;-0.31542143;583.0461;-9265.409;-8682.363;-2905.5774;0.0;0.0;1838.2656
2540.815;0.28391787;-0.31438765;583.00745;-9264.794;-8681.786;-2899.7988;0.0;0.0;1838.2656
2540.82;0.28391987;-0.3133897;583.0472;-9264.331;-8681.284;-2894.3748;0.0;0.0;1838.2656
2540.825;0.28393975;-0.31241345;583.1572;-9263.758;-8680.601;-2889.2112;0.0;0.0;1838.2656
2540.83;0.28397447;-0.3116138;583.30945;-9263.376;-8680.066;-2885.1057;0.0;0.0;1838.2656
2540.835;0.2840126;-0.31100616;583.4552;-9263.1045;-8679.649;-2882.0461;0.0;0.0;1838.2656
2540.84;0.2840418;-0.31042448;583.54584;-9262.718;-8679.172;-2879.0195;0.0;0.0;1838.2656
2540.845;0.2840516;-0.31000096;583.5506;-9262.448;-8678.897;-2876.6934;0.0;0.0;1838.2656
2540.85;0.28403875;-0.30938673;583.4623;-9261.986;-8678.524;-2873.1296;0.0;0.0;1838.2656
2540.855;0.28400472;-0.30853122;583.3055;-9261.146;-8677.841;-2868.098;0.0;0.0;1838.2656
2540.86;0.28396085;-0.30758572;583.1267;-9260.298;-8677.171;-2862.5261;0.0;0.0;1838.2656
2540.865;0.28391868;-0.30644038;582.9706;-9259.282;-8676.312;-2855.8977;0.0;0.0;1838.2656
2540.87;0.28388852;-0.30538756;582.88214;-9258.507;-8675.625;-2849.9146;0.0;0.0;1838.2656
2540.875;0.2838808;-0.3041491;582.89514;-9257.449;-8674.554;-2843.1106;0.0;0.0;1838.2656
2540.88;0.28390053;-0.30327544;583.0143;-9256.644;-8673.629;-2838.531;0.0;0.0;1838.2656
2540.885;0.28394318;-0.30251384;583.2242;-9255.955;-8672.73;-2834.7507;0.0;0.0;1838.2656
2540.89;0.2840054;-0.30230808;583.4969;-9255.674;-8672.177;-2834.1614;0.0;0.0;1838.2656
2540.895;0.28407586;-0.30258444;583.78577;-9255.902;-8672.116;-2836.2632;0.0;0.0;1838.2656
2540.9;0.28414315;-0.3031636;584.05023;-9256.187;-8672.137;-2839.986;0.0;0.0;1838.2656
2540.905;0.28419957;-0.304192;584.26404;-9256.896;-8672.633;-2846.0852;0.0;0.0;1838.2656
2540.91;0.28424093;-0.305565;584.4116;-9257.977;-8673.564;-2853.9521;0.0;0.0;1838.2656
2540.915;0.28426483;-0.3068442;584.4942;-9258.5625;-8674.068;-2861.1719;0.0;0.0;1838.2656
2540.92;0.28427503;-0.30830806;584.527;-9259.439;-8674.912;-2869.3103;0.0;0.0;1838.2656
2540.925;0.2842756;-0.3097644;584.53107;-9260.2705;-8675.739;-2877.3499;0.0;0.0;1838.2656
2540.93;0.28427303;-0.31144226;584.5317;-9261.41;-8676.879;-2886.6042;0.0;0.0;1838.2656
2540.935;0.28427252;-0.31310484;584.54016;-9262.52;-8677.9795;-2895.7898;0.0;0.0;1838.2656
2540.94;0.28427416;-0.3145722;584.5597;-9263.371;-8678.812;-2903.9211;0.0;0.0;1838.2656
2540.945;0.28427923;-0.3160712;584.59216;-9264.225;-8679.633;-2912.253;0.0;0.0;1838.2656
2540.95;0.2842868;-0.31754595;584.6213;-9265.053;-8680.432;-2920.4438;0.0;0.0;1838.2656
2540.955;0.28428978;-0.31914508;584.63086;-9266.272;-8681.642;-2929.282;0.0;0.0;1838.2656
2540.96;0.28428754;-0.32036567;584.61523;-9266.74;-8682.125;-2935.982;0.0;0.0;1838.2656
2540.965;0.28427824;-0.32175002;584.56665;-9267.656;-8683.09;-2943.5193;0.0;0.0;1838.2656
2540.97;0.2842603;-0.32270142;584.4861;-9268.1455;-8683.659;-2948.605;0.0;0.0;1838.2656
2540.975;0.28423652;-0.32371962;584.3891;-9268.918;-8684.529;-2954.0261;0.0;0.0;1838.2656
2540.98;0.2842116;-0.3245892;584.29156;-9269.632;-8685.34;-2958.6267;0.0;0.0;1838.2656
2540.985;0.2841886;-0.3253345;584.21326;-9270.386;-8686.173;-2962.58;0.0;0.0;1838.2656
2540.99;0.2841737;-0.325762;584.1717;-9270.745;-8686.573;-2964.8547;0.0;0.0;1838.2656
2540.995;0.28416878;-0.3261781;584.17285;-9271.199;-8687.026;-2967.1516;0.0;0.0;1838.2656
2541.0;0.28417417;-0.3266527;584.2111;-9271.985;-8687.774;-2969.8455;0.0;0.0;1838.2656
2541.005;0.28418642;-0.32702777;584.2662;-9272.556;-8688.289;-2972.0242;0.0;0.0;1838.2656
2541.01;0.28419855;-0.32746983;584.3145;-9273.225;-8688.91;-2974.5586;0.0;0.0;1838.2656
2541.015;0.28420645;-0.3277624;584.33374;-9273.863;-8689.529;-2976.2104;0.0;0.0;1838.2656
2541.02;0.28420365;-0.32833102;584.3042;-9274.803;-8690.498;-2979.2874;0.0;0.0;1838.2656
2541.025;0.28418723;-0.32837537;584.22504;-9275.23;-8691.006;-2979.3735;0.0;0.0;1838.2656
2541.03;0.28416133;-0.32854834;584.1047;-9275.919;-8691.814;-2980.0867;0.0;0.0;1838.2656
2541.035;0.28412604;-0.3283852;583.95953;-9276.215;-8692.255;-2978.8967;0.0;0.0;1838.2656
2541.04;0.28408936;-0.32815048;583.819;-9276.617;-8692.798;-2977.3213;0.0;0.0;1838.2656
2541.045;0.28405732;-0.3278859;583.70087;-9277.055;-8693.354;-2975.626;0.0;0.0;1838.2656
2541.05;0.2840318;-0.32715568;583.6041;-9276.907;-8693.303;-2971.4055;0.0;0.0;1838.2656
2541.055;0.2840098;-0.32634422;583.51666;-9276.584;-8693.067;-2966.7554;0.0;0.0;1838.2656
2541.06;0.28398782;-0.32532167;583.41394;-9276.097;-8692.683;-2960.911;0.0;0.0;1838.2656
2541.065;0.28395745;-0.3243857;583.2693;-9275.797;-8692.527;-2955.46;0.0;0.0;1838.2656
2541.07;0.2839149;-0.3232112;583.07874;-9275.213;-8692.134;-2948.6016;0.0;0.0;1838.2656
2541.075;0.28386292;-0.32201144;582.8513;-9274.799;-8691.947;-2941.5303;0.0;0.0;1838.2656
2541.08;0.28380394;-0.32043958;582.6024;-9273.924;-8691.321;-2932.364;0.0;0.0;1838.2656
2541.085;0.28374365;-0.3187203;582.3655;-9272.997;-8690.632;-2922.4087;0.0;0.0;1838.2656
2541.09;0.28369248;-0.31651422;582.173;-9271.416;-8689.243;-2909.8577;0.0;0.0;1838.2656
2541.095;0.2836552;-0.3142483;582.04584;-9269.786;-8687.74;-2897.1072;0.0;0.0;1838.2656
2541.1;0.28363618;-0.31203446;581.9952;-9268.266;-8686.2705;-2884.7969;0.0;0.0;1838.2656
2541.105;0.28363585;-0.31001493;582.0138;-9267.029;-8685.016;-2873.697;0.0;0.0;1838.2656
2541.11;0.28364965;-0.3080897;582.08484;-9265.777;-8683.692;-2863.2217;0.0;0.0;1838.2656
2541.115;0.28367385;-0.30623022;582.19055;-9264.47;-8682.279;-2853.1785;0.0;0.0;1838.2656
2541.12;0.28370345;-0.30467215;582.32104;-9263.429;-8681.107;-2844.8472;0.0;0.0;1838.2656
