time;temperature;pressure;kinetic_energy;potential_energy;total_energy;virial;msd;diffusion;volume
3080.005;0.06821672;-0.6868264;140.42203;-9785.441;-9645.02;-4068.5522;0.0;0.0;1838.2656
3080.01;0.068219356;-0.6876908;140.43335;-9785.898;-9645.465;-4073.3418;0.0;0.0;1838.2656
3080.015;0.06821889;-0.6887332;140.43121;-9786.536;-9646.1045;-4079.0862;0.0;0.0;1838.2656
3080.02;0.068214975;-0.6896937;140.41437;-9787.157;-9646.743;-4084.3494;0.0;0.0;1838.2656
3080.025;0.06820735;-0.69051385;140.38269;-9787.539;-9647.156;-4088.8088;0.0;0.0;1838.2656
3080.03;0.06819635;-0.69140434;140.33633;-9788.167;-9647.831;-4093.627;0.0;0.0;1838.2656
3080.035;0.06818172;-0.6921099;140.2766;-9788.415;-9648.139;-4097.3984;0.0;0.0;1838.2656
3080.04;0.0681643;-0.6927196;140.20668;-9788.668;-9648.461;-4100.621;0.0;0.0;1838.2656
3080.045;0.06814497;-0.6933081;140.12881;-9788.969;-9648.84;-4103.711;0.0;0.0;1838.2656
3080.05;0.06812397;-0.6937169;140.04535;-9789.127;-9649.082;-4105.7983;0.0;0.0;1838.2656
3080.055;0.06810214;-0.6940468;139.96045;-9789.224;-9649.264;-4107.4478;0.0;0.0;1838.2656
3080.06;0.06808076;-0.6942217;139.87898;-9789.167;-9649.288;-4108.2495;0.0;0.0;1838.2656
3080.065;0.06806092;-0.69429016;139.80396;-9788.986;-9649.183;-4108.477;0.0;0.0;1838.2656
3080.07;0.06804295;-0.69425255;139.74188;-9788.688;-9648.946;-4108.1455;0.0;0.0;1838.2656
3080.075;0.06802963;-0.69412214;139.6944;-9788.32;-9648.626;-4107.3315;0.0;0.0;1838.2656
3080.08;0.06801894;-0.69405276;139.66333;-9788.0625;-9648.399;-4106.886;0.0;0.0;1838.2656
3080.085;0.06801373;-0.693956;139.65257;-9787.701;-9648.049;-4106.3315;0.0;0.0;1838.2656
3080.09;0.068012945;-0.6941087;139.66142;-9787.798;-9648.137;-4107.1914;0.0;0.0;1838.2656
3080.095;0.06801717;-0.6940955;139.68845;-9787.448;-9647.76;-4107.1724;0.0;0.0;1838.2656
3080.1;0.068025045;-0.6940425;139.72836;-9786.996;-9647.268;-4106.9604;0.0;0.0;1838.2656
3080.105;0.068035275;-0.69425255;139.78043;-9786.848;-9647.067;-4108.2227;0.0;0.0;1838.2656
3080.11;0.06804875;-0.69466466;139.84033;-9787.031;-9647.191;-4110.615;0.0;0.0;1838.2656
3080.115;0.068062484;-0.6951158;139.90091;-9787.04;-9647.139;-4113.224;0.0;0.0;1838.2656
3080.12;0.06807595;-0.69567055;139.95819;-9787.186;-9647.228;-4116.3984;0.0;0.0;1838.2656
3080.125;0.068087816;-0.6965156;140.00822;-9787.668;-9647.66;-4121.1587;0.0;0.0;1838.2656
3080.13;0.0680975;-0.69717944;140.04724;-9787.729;-9647.682;-4124.8975;0.0;0.0;1838.2656
3080.135;0.0681038;-0.6979693;140.07214;-9787.909;-9647.837;-4129.303;0.0;0.0;1838.2656
3080.14;0.06810653;-0.6986629;140.08405;-9787.865;-9647.781;-4133.152;0.0;0.0;1838.2656
3080.145;0.06810656;-0.6992269;140.08282;-9787.652;-9647.569;-4136.26;0.0;0.0;1838.2656
3080.15;0.06810294;-0.70006734;140.06818;-9787.807;-9647.738;-4140.865;0.0;0.0;1838.2656
3080.155;0.06809655;-0.7008989;140.04341;-9787.986;-9647.943;-4145.402;0.0;0.0;1838.2656
3080.16;0.06808822;-0.7017979;140.01172;-9788.314;-9648.303;-4150.2964;0.0;0.0;1838.2656
3080.165;0.06807863;-0.7024766;139.97559;-9788.42;-9648.444;-4153.9673;0.0;0.0;1838.2656
3080.17;0.06806835;-0.7033487;139.93697;-9788.741;-9648.805;-4158.699;0.0;0.0;1838.2656
3080.175;0.06805776;-0.7038611;139.89995;-9788.6;-9648.699;-4161.451;0.0;0.0;1838.2656
3080.18;0.06804836;-0.70449567;139.86621;-9788.724;-9648.857;-4164.883;0.0;0.0;1838.2656
3080.185;0.06803946;-0.7050857;139.83514;-9788.754;-9648.919;-4168.0747;0.0;0.0;1838.2656
3080.19;0.06803145;-0.7055677;139.80875;-9788.734;-9648.926;-4170.68;0.0;0.0;1838.2656
3080.195;0.068024874;-0.70599544;139.78625;-9788.663;-9648.877;-4172.994;0.0;0.0;1838.2656
3080.2;0.06801875;-0.7065279;139.76605;-9788.817;-9649.052;-4175.89;0.0;0.0;1838.2656
3080.205;0.06801332;-0.70703274;139.74974;-9788.929;-9649.179;-4178.6416;0.0;0.0;1838.2656
3080.21;0.06800902;-0.7073505;139.73628;-9788.707;-9648.971;-4180.3667;0.0;0.0;1838.2656
3080.215;0.06800492;-0.7076015;139.72394;-9788.439;-9648.716;-4181.726;0.0;0.0;1838.2656
3080.22;0.06800114;-0.70779675;139.712;-9788.28;-9648.568;-4182.7793;0.0;0.0;1838.2656
3080.225;0.06799726;-0.70819163;139.70067;-9788.325;-9648.625;-4184.934;0.0;0.0;1838.2656
3080.23;0.067993715;-0.7085326;139.691;-9788.322;-9648.631;-4186.795;0.0;0.0;1838.2656
3080.235;0.06799057;-0.708781;139.68295;-9788.299;-9648.616;-4188.149;0.0;0.0;1838.2656
3080.24;0.06798784;-0.7090627;139.67505;-9788.309;-9648.634;-4189.687;0.0;0.0;1838.2656
3080.245;0.067984655;-0.709359;139.66458;-9788.439;-9648.774;-4191.3;0.0;0.0;1838.2656
3080.25;0.06798056;-0.7095251;139.6517;-9788.372;-9648.721;-4192.1904;0.0;0.0;1838.2656
3080.255;0.06797616;-0.7095377;139.63692;-9788.107;-9648.471;-4192.23;0.0;0.0;1838.2656
3080.26;0.06797105;-0.7095813;139.61871;-9788.002;-9648.383;-4192.434;0.0;0.0;1838.2656
3080.265;0.06796493;-0.70946735;139.59354;-9787.686;-9648.092;-4191.7554;0.0;0.0;1838.2656
3080.27;0.06795643;-0.70933527;139.55951;-9787.473;-9647.913;-4190.959;0.0;0.0;1838.2656
3080.275;0.06794599;-0.7094216;139.51746;-9787.727;-9648.209;-4191.3506;0.0;0.0;1838.2656
3080.28;0.06793367;-0.7092727;139.46683;-9787.743;-9648.276;-4190.428;0.0;0.0;1838.2656
3080.285;0.06791914;-0.70881504;139.40926;-9787.337;-9647.928;-4187.7896;0.0;0.0;1838.2656
3080.29;0.06790369;-0.7084548;139.34674;-9787.326;-9647.9795;-4185.6777;0.0;0.0;1838.2656
3080.295;0.06788703;-0.70796734;139.28137;-9787.244;-9647.963;-4182.859;0.0;0.0;1838.2656
3080.3;0.067870446;-0.70707995;139.21622;-9786.564;-9647.349;-4177.835;0.0;0.0;1838.2656
3080.305;0.06785426;-0.7060091;139.15854;-9785.721;-9646.5625;-4171.814;0.0;0.0;1838.2656
3080.31;0.06784157;-0.704913;139.11475;-9785.017;-9645.902;-4165.6816;0.0;0.0;1838.2656
3080.315;0.06783251;-0.70371735;139.08513;-9784.158;-9645.073;-4159.0283;0.0;0.0;1838.2656
3080.32;0.067826934;-0.70274204;139.07292;-9783.8125;-9644.739;-4153.6255;0.0;0.0;1838.2656
3080.325;0.06782648;-0.70160335;139.0821;-9783.178;-9644.096;-4147.3643;0.0;0.0;1838.2656
3080.33;0.06783141;-0.7004686;139.11479;-9782.627;-9643.512;-4141.172;0.0;0.0;1838.2656
3080.335;0.06784233;-0.6994813;139.1701;-9782.302;-9643.132;-4135.838;0.0;0.0;1838.2656
3080.34;0.06785812;-0.69867;139.24586;-9782.178;-9642.932;-4131.515;0.0;0.0;1838.2656
3080.345;0.067878835;-0.69783986;139.34076;-9781.81;-9642.469;-4127.1265;0.0;0.0;1838.2656
3080.35;0.067903526;-0.6970345;139.45035;-9781.542;-9642.092;-4122.9043;0.0;0.0;1838.2656
3080.355;0.06793102;-0.6964272;139.57092;-9781.324;-9641.753;-4119.797;0.0;0.0;1838.2656
3080.36;0.067960575;-0.696089;139.69568;-9781.516;-9641.82;-4118.1807;0.0;0.0;1838.2656
3080.365;0.06798963;-0.6959214;139.81808;-9781.715;-9641.896;-4117.5015;0.0;0.0;1838.2656
3080.37;0.068017565;-0.6960466;139.9325;-9782.374;-9642.441;-4118.4204;0.0;0.0;1838.2656
3080.375;0.06804223;-0.69624466;140.03497;-9782.905;-9642.87;-4119.718;0.0;0.0;1838.2656
3080.38;0.068063974;-0.69659907;140.12216;-9783.605;-9643.483;-4121.8467;0.0;0.0;1838.2656
3080.385;0.06808095;-0.6969131;140.18849;-9784.107;-9643.919;-4123.7114;0.0;0.0;1838.2656
3080.39;0.06809234;-0.6974279;140.23415;-9784.947;-9644.713;-4126.6416;0.0;0.0;1838.2656
3080.395;0.068099216;-0.6978152;140.25845;-9785.518;-9645.259;-4128.826;0.0;0.0;1838.2656
3080.4;0.06810021;-0.69836134;140.26181;-9786.331;-9646.069;-4131.8447;0.0;0.0;1838.2656
3080.405;0.06809704;-0.6987902;140.24698;-9786.929;-9646.682;-4134.1797;0.0;0.0;1838.2656
3080.41;0.0680893;-0.699126;140.21774;-9787.447;-9647.2295;-4135.973;0.0;0.0;1838.2656
3080.415;0.06807934;-0.6996101;140.17793;-9788.266;-9648.088;-4138.5635;0.0;0.0;1838.2656
3080.42;0.06806663;-0.6997793;140.1271;-9788.667;-9648.54;-4139.395;0.0;0.0;1838.2656
3080.425;0.06805151;-0.7000504;140.06862;-9789.385;-9649.316;-4140.7734;0.0;0.0;1838.2656
3080.43;0.068035305;-0.7000649;140.00589;-9789.703;-9649.697;-4140.7275;0.0;0.0;1838.2656
3080.435;0.06801829;-0.6998483;139.94096;-9789.806;-9649.864;-4139.403;0.0;0.0;1838.2656
3080.44;0.06800126;-0.6997406;139.87608;-9790.093;-9650.217;-4138.679;0.0;0.0;1838.2656
3080.445;0.06798437;-0.6994669;139.8122;-9790.262;-9650.449;-4137.042;0.0;0.0;1838.2656
3080.45;0.067967996;-0.6992423;139.74915;-9790.686;-9650.937;-4135.6777;0.0;0.0;1838.2656
3080.455;0.06795167;-0.69882756;139.68787;-9790.85;-9651.162;-4133.2676;0.0;0.0;1838.2656
3080.46;0.06793625;-0.6984071;139.6301;-9791.145;-9651.515;-4130.8335;0.0;0.0;1838.2656
3080.465;0.06792179;-0.6979659;139.57666;-9791.348;-9651.771;-4128.2935;0.0;0.0;1838.2656
3080.47;0.06790855;-0.69742054;139.52977;-9791.51;-9651.98;-4125.1924;0.0;0.0;1838.2656
3080.475;0.06789738;-0.696831;139.48798;-9791.683;-9652.194;-4121.857;0.0;0.0;1838.2656
3080.48;0.067886755;-0.69616765;139.45032;-9791.742;-9652.292;-4118.1235;0.0;0.0;1838.2656
3080.485;0.06787769;-0.6953728;139.4193;-9791.553;-9652.134;-4113.6787;0.0;0.0;1838.2656
3080.49;0.06787038;-0.6944392;139.39694;-9791.127;-9651.73;-4108.485;0.0;0.0;1838.2656
3080.495;0.067865685;-0.6936846;139.38402;-9790.982;-9651.599;-4104.2974;0.0;0.0;1838.2656
3080.5;0.06786298;-0.6928426;139.3796;-9790.648;-9651.269;-4099.6455;0.0;0.0;1838.2656
3080.505;0.067862496;-0.6920125;139.38585;-9790.231;-9650.846;-4095.0798;0.0;0.0;1838.2656
3080.51;0.067865044;-0.69141304;139.4038;-9790.207;-9650.804;-4091.81;0.0;0.0;1838.2656
3080.515;0.06787019;-0.69086814;139.43375;-9790.141;-9650.707;-4088.865;0.0;0.0;1838.2656
3080.52;0.0678785;-0.6904697;139.47446;-9790.238;-9650.764;-4086.7488;0.0;0.0;1838.2656
3080.525;0.06788876;-0.69005287;139.52454;-9790.112;-9650.588;-4084.5505;0.0;0.0;1838.2656
3080.53;0.0679014;-0.68949383;139.5828;-9789.748;-9650.165;-4081.584;0.0;0.0;1838.2656
3080.535;0.06791536;-0.6892858;139.64502;-9789.688;-9650.043;-4080.5613;0.0;0.0;1838.2656
3080.54;0.06792961;-0.6892379;139.70584;-9789.857;-9650.151;-4080.4187;0.0;0.0;1838.2656
3080.545;0.06794252;-0.6893723;139.75934;-9790.101;-9650.341;-4081.2668;0.0;0.0;1838.2656
3080.55;0.06795288;-0.6896026;139.80365;-9790.483;-9650.68;-4082.6257;0.0;0.0;1838.2656
3080.555;0.067960985;-0.6899277;139.83517;-9790.944;-9651.109;-4084.4817;0.0;0.0;1838.2656
3080.56;0.0679649;-0.6902764;139.84862;-9791.369;-9651.5205;-4086.4312;0.0;0.0;1838.2656
3080.565;0.06796405;-0.6906322;139.84027;-9791.785;-9651.945;-4088.377;0.0;0.0;1838.2656
3080.57;0.067957245;-0.6909033;139.80984;-9792.053;-9652.243;-4089.811;0.0;0.0;1838.2656
3080.575;0.06794576;-0.69125074;139.759;-9792.511;-9652.752;-4091.6255;0.0;0.0;1838.2656
3080.58;0.06792919;-0.6914858;139.68773;-9792.819;-9653.132;-4092.7793;0.0;0.0;1838.2656
3080.585;0.06790801;-0.6914798;139.6004;-9792.861;-9653.261;-4092.5715;0.0;0.0;1838.2656
3080.59;0.067883976;-0.6913232;139.50215;-9792.677;-9653.175;-4091.5112;0.0;0.0;1838.2656
3080.595;0.067857854;-0.69109374;139.39844;-9792.572;-9653.174;-4090.0386;0.0;0.0;1838.2656
3080.6;0.067831576;-0.6907411;139.29521;-9792.361;-9653.066;-4087.8875;0.0;0.0;1838.2656
3080.605;0.06780609;-0.69025296;139.1984;-9791.928;-9652.7295;-4085.0017;0.0;0.0;1838.2656
3080.61;0.06778334;-0.6896365;139.11433;-9791.617;-9652.503;-4081.4338;0.0;0.0;1838.2656
3080.615;0.06776437;-0.6889101;139.04613;-9791.047;-9652.001;-4077.2917;0.0;0.0;1838.2656
3080.62;0.06774956;-0.6881993;138.99677;-9790.652;-9651.655;-4073.2727;0.0;0.0;1838.2656
3080.625;0.06774004;-0.6874245;138.97044;-9790.11;-9651.14;-4068.9473;0.0;0.0;1838.2656
3080.63;0.06773645;-0.68668044;138.96686;-9789.663;-9650.696;-4064.837;0.0;0.0;1838.2656
3080.635;0.06773795;-0.685869;138.98349;-9789.119;-9650.136;-4060.3953;0.0;0.0;1838.2656
3080.64;0.06774411;-0.68529797;139.02118;-9788.826;-9649.805;-4057.3215;0.0;0.0;1838.2656
3080.645;0.06775571;-0.68469745;139.07565;-9788.473;-9649.397;-4054.1187;0.0;0.0;1838.2656
3080.65;0.067769684;-0.68427926;139.1399;-9788.258;-9649.118;-4051.941;0.0;0.0;1838.2656
3080.655;0.0677857;-0.6840303;139.21143;-9788.286;-9649.074;-4050.711;0.0;0.0;1838.2656
3080.66;0.06780292;-0.6838018;139.28595;-9788.193;-9648.907;-4049.5996;0.0;0.0;1838.2656
3080.665;0.067820005;-0.6837703;139.3583;-9788.271;-9648.913;-4049.571;0.0;0.0;1838.2656
3080.67;0.06783589;-0.68385994;139.42462;-9788.441;-9649.017;-4050.1978;0.0;0.0;1838.2656
3080.675;0.067849815;-0.6839108;139.48303;-9788.441;-9648.958;-4050.5952;0.0;0.0;1838.2656
3080.68;0.06786163;-0.6840948;139.5321;-9788.566;-9649.034;-4051.708;0.0;0.0;1838.2656
3080.685;0.06787091;-0.68438315;139.5704;-9788.857;-9649.287;-4053.375;0.0;0.0;1838.2656
3080.69;0.06787741;-0.68476146;139.59671;-9789.157;-9649.561;-4055.514;0.0;0.0;1838.2656
3080.695;0.06788089;-0.6853299;139.61394;-9789.747;-9650.133;-4058.6833;0.0;0.0;1838.2656
3080.7;0.06788296;-0.6856574;139.62473;-9789.871;-9650.246;-4060.5107;0.0;0.0;1838.2656
3080.705;0.06788338;-0.6859647;139.62962;-9789.969;-9650.339;-4062.2153;0.0;0.0;1838.2656
3080.71;0.06788258;-0.686265;139.63033;-9789.979;-9650.349;-4063.8728;0.0;0.0;1838.2656
3080.715;0.067881;-0.6865391;139.62749;-9790.083;-9650.455;-4065.3787;0.0;0.0;1838.2656
3080.72;0.06787846;-0.6868514;139.61841;-9790.189;-9650.571;-4067.0825;0.0;0.0;1838.2656
3080.725;0.06787376;-0.687393;139.60138;-9790.731;-9651.13;-4070.0354;0.0;0.0;1838.2656
3080.73;0.06786735;-0.6875693;139.57654;-9790.762;-9651.186;-4070.9583;0.0;0.0;1838.2656
3080.735;0.0678589;-0.68791133;139.54507;-9791.011;-9651.466;-4072.7815;0.0;0.0;1838.2656
3080.74;0.06784926;-0.6880845;139.50565;-9791.146;-9651.641;-4073.6575;0.0;0.0;1838.2656
3080.745;0.067836955;-0.68832856;139.45645;-9791.363;-9651.907;-4074.9053;0.0;0.0;1838.2656
3080.75;0.0678227;-0.68833214;139.39865;-9791.422;-9652.023;-4074.8093;0.0;0.0;1838.2656
3080.755;0.0678064;-0.6883867;139.33423;-9791.5625;-9652.229;-4074.9812;0.0;0.0;1838.2656
3080.76;0.06778905;-0.68835974;139.26575;-9791.677;-9652.411;-4074.6958;0.0;0.0;1838.2656
3080.765;0.06777103;-0.68804693;139.1962;-9791.411;-9652.215;-4072.8315;0.0;0.0;1838.2656
3080.77;0.06775334;-0.68772036;139.1284;-9791.272;-9652.145;-4070.8948;0.0;0.0;1838.2656
3080.775;0.067736335;-0.68727195;139.06276;-9790.961;-9651.898;-4068.2908;0.0;0.0;1838.2656
3080.78;0.06771992;-0.68665147;139.0024;-9790.414;-9651.412;-4064.748;0.0;0.0;1838.2656
3080.785;0.06770566;-0.6860681;138.95004;-9790.016;-9651.065;-4061.4265;0.0;0.0;1838.2656
3080.79;0.0676933;-0.68546003;138.90556;-9789.696;-9650.791;-4057.984;0.0;0.0;1838.2656
3080.795;0.067683004;-0.6849112;138.87;-9789.557;-9650.687;-4054.886;0.0;0.0;1838.2656
3080.8;0.067675084;-0.6842368;138.84563;-9789.145;-9650.299;-4051.1184;0.0;0.0;1838.2656
3080.805;0.0676703;-0.68339884;138.83272;-9788.434;-9649.601;-4046.4714;0.0;0.0;1838.2656
3080.81;0.06766805;-0.68272215;138.83212;-9788.031;-9649.199;-4042.7383;0.0;0.0;1838.2656
3080.815;0.06766932;-0.6820623;138.84546;-9787.531;-9648.686;-4039.1262;0.0;0.0;1838.2656
3080.82;0.06767378;-0.6812966;138.8724;-9786.83;-9647.958;-4034.957;0.0;0.0;1838.2656
3080.825;0.06768167;-0.68081725;138.91446;-9786.467;-9647.553;-4032.3977;0.0;0.0;1838.2656
3080.83;0.0676934;-0.68046194;138.97171;-9786.32;-9647.349;-4030.5527;0.0;0.0;1838.2656
3080.835;0.067708544;-0.6800571;139.04181;-9785.844;-9646.802;-4028.4604;0.0;0.0;1838.2656
3080.84;0.0677263;-0.67989683;139.12132;-9785.6875;-9646.566;-4027.7356;0.0;0.0;1838.2656
3080.845;0.06774573;-0.67986655;139.2076;-9785.559;-9646.351;-4027.7412;0.0;0.0;1838.2656
3080.85;0.067766406;-0.680036;139.29861;-9785.555;-9646.256;-4028.8577;0.0;0.0;1838.2656
3080.855;0.06778783;-0.6803944;139.39148;-9785.752;-9646.36;-4031.02;0.0;0.0;1838.2656
3080.86;0.06780905;-0.6808583;139.48003;-9785.979;-9646.498;-4033.7554;0.0;0.0;1838.2656
3080.865;0.067827985;-0.6816946;139.55826;-9786.626;-9647.067;-4038.524;0.0;0.0;1838.2656
3080.87;0.06784382;-0.6824287;139.62212;-9787.02;-9647.397;-4042.7;0.0;0.0;1838.2656
3080.875;0.067855544;-0.6832779;139.6678;-9787.519;-9647.851;-4047.4744;0.0;0.0;1838.2656
3080.88;0.06786234;-0.68416065;139.69165;-9787.989;-9648.298;-4052.3901;0.0;0.0;1838.2656
3080.885;0.067863315;-0.68516594;139.69211;-9788.529;-9648.837;-4057.9353;0.0;0.0;1838.2656
3080.89;0.067858785;-0.6860847;139.66983;-9789.102;-9649.432;-4062.9573;0.0;0.0;1838.2656
3080.895;0.06784884;-0.6869734;139.62769;-9789.534;-9649.906;-4067.7742;0.0;0.0;1838.2656
3080.9;0.06783488;-0.68767935;139.56857;-9789.77;-9650.201;-4071.5488;0.0;0.0;1838.2656
3080.905;0.06781693;-0.6884595;139.49435;-9790.137;-9650.643;-4075.703;0.0;0.0;1838.2656
3080.91;0.067795955;-0.68891513;139.41074;-9790.112;-9650.701;-4078.0483;0.0;0.0;1838.2656
3080.915;0.06777378;-0.6894691;139.32413;-9790.356;-9651.032;-4080.9302;0.0;0.0;1838.2656
3080.92;0.06775176;-0.6898793;139.23758;-9790.576;-9651.339;-4083.0195;0.0;0.0;1838.2656
3080.925;0.06772993;-0.6902382;139.15556;-9790.735;-9651.58;-4084.8345;0.0;0.0;1838.2656
3080.93;0.06771033;-0.69030017;139.08185;-9790.535;-9651.453;-4085.0288;0.0;0.0;1838.2656
3080.935;0.06769279;-0.690271;139.01813;-9790.233;-9651.215;-4084.7407;0.0;0.0;1838.2656
3080.94;0.0676782;-0.69030356;138.96812;-9790.166;-9651.198;-4084.82;0.0;0.0;1838.2656
3080.945;0.067667395;-0.6901103;138.93271;-9789.77;-9650.837;-4083.6838;0.0;0.0;1838.2656
3080.95;0.06765998;-0.68991935;138.91194;-9789.379;-9650.467;-4082.589;0.0;0.0;1838.2656
3080.955;0.06765633;-0.6898886;138.90555;-9789.261;-9650.355;-4082.4065;0.0;0.0;1838.2656
3080.96;0.06765583;-0.689806;138.91125;-9788.992;-9650.081;-4081.9624;0.0;0.0;1838.2656
3080.965;0.06765798;-0.68966436;138.92914;-9788.691;-9649.763;-4081.2173;0.0;0.0;1838.2656
3080.97;0.0676633;-0.6896029;138.95709;-9788.436;-9649.479;-4080.934;0.0;0.0;1838.2656
3080.975;0.067670174;-0.6895673;138.99165;-9788.205;-9649.214;-4080.8071;0.0;0.0;1838.2656
3080.98;0.06767847;-0.68968296;139.03207;-9788.094;-9649.062;-4081.5256;0.0;0.0;1838.2656
3080.985;0.06768802;-0.6898747;139.07578;-9788.07;-9648.994;-4082.6707;0.0;0.0;1838.2656
3080.99;0.06769769;-0.69023037;139.11821;-9788.248;-9649.13;-4084.7166;0.0;0.0;1838.2656
3080.995;0.06770638;-0.6905711;139.15652;-9788.383;-9649.227;-4086.6726;0.0;0.0;1838.2656
3081.0;0.067713894;-0.6909904;139.19101;-9788.5;-9649.309;-4089.0535;0.0;0.0;1838.2656
3081.005;0.06772058;-0.6914545;139.21915;-9788.597;-9649.378;-4091.6697;0.0;0.0;1838.2656
3081.01;0.0677249;-0.6920047;139.23734;-9788.9;-9649.663;-4094.7397;0.0;0.0;1838.2656
3081.015;0.067726694;-0.6925991;139.24602;-9789.164;-9649.918;-4098.0356;0.0;0.0;1838.2656
3081.02;0.06772635;-0.6929978;139.2456;-9789.149;-9649.904;-4100.2334;0.0;0.0;1838.2656
3081.025;0.06772379;-0.6934387;139.23688;-9789.262;-9650.024;-4102.6475;0.0;0.0;1838.2656
3081.03;0.06771949;-0.69409806;139.2192;-9789.635;-9650.416;-4106.248;0.0;0.0;1838.2656
3081.035;0.06771265;-0.6946003;139.19276;-9789.881;-9650.688;-4108.965;0.0;0.0;1838.2656
3081.04;0.06770428;-0.6949306;139.16214;-9789.863;-9650.701;-4110.7256;0.0;0.0;1838.2656
3081.045;0.067695566;-0.6953322;139.12933;-9789.907;-9650.778;-4112.8745;0.0;0.0;1838.2656
3081.05;0.06768629;-0.69558746;139.09525;-9789.903;-9650.808;-4114.214;0.0;0.0;1838.2656
3081.055;0.067677066;-0.69574106;139.06203;-9789.797;-9650.734;-4114.9946;0.0;0.0;1838.2656
3081.06;0.067668386;-0.69583917;139.03204;-9789.58;-9650.548;-4115.476;0.0;0.0;1838.2656
3081.065;0.06766079;-0.69591004;139.00696;-9789.406;-9650.399;-4115.8164;0.0;0.0;1838.2656
3081.07;0.06765452;-0.6959948;138.98718;-9789.309;-9650.321;-4116.244;0.0;0.0;1838.2656
3081.075;0.06764955;-0.69615966;138.97208;-9789.361;-9650.39;-4117.123;0.0;0.0;1838.2656
3081.08;0.06764552;-0.6961421;138.95874;-9789.19;-9650.231;-4116.9995;0.0;0.0;1838.2656
3081.085;0.06764142;-0.6963047;138.9492;-9789.398;-9650.449;-4117.8774;0.0;0.0;1838.2656
3081.09;0.06763916;-0.69635385;138.94312;-9789.338;-9650.395;-4118.136;0.0;0.0;1838.2656
3081.095;0.06763668;-0.6962773;138.9389;-9789.258;-9650.319;-4117.706;0.0;0.0;1838.2656
3081.1;0.06763531;-0.6962632;138.9347;-9789.203;-9650.269;-4117.6196;0.0;0.0;1838.2656
3081.105;0.067632794;-0.6962459;138.93033;-9789.182;-9650.251;-4117.5156;0.0;0.0;1838.2656
3081.11;0.06763137;-0.696222;138.92773;-9789.191;-9650.264;-4117.3784;0.0;0.0;1838.2656
3081.115;0.06762965;-0.69599193;138.9253;-9788.882;-9649.957;-4116.1045;0.0;0.0;1838.2656
