time;temperature;pressure;kinetic_energy;potential_energy;total_energy;virial;msd;diffusion;volume
2345.005;0.36232296;-0.1481689;743.951;-8489.469;-7745.5176;-2305.0234;0.0;0.0;1838.2656
2345.01;0.3622649;-0.14674746;743.7257;-8488.324;-7744.5986;-2296.734;0.0;0.0;1838.2656
2345.015;0.36222118;-0.14500041;743.5965;-8486.642;-7743.045;-2286.8408;0.0;0.0;1838.2656
2345.02;0.3622142;-0.14354575;743.64355;-8485.457;-7741.8135;-2278.9128;0.0;0.0;1838.2656
2345.025;0.3622579;-0.1422396;743.9131;-8484.023;-7740.1104;-2272.2488;0.0;0.0;1838.2656
2345.03;0.362357;-0.14193787;744.39417;-8483.648;-7739.2544;-2271.5469;0.0;0.0;1838.2656
2345.035;0.36249688;-0.14234342;744.9924;-8483.787;-7738.795;-2274.9797;0.0;0.0;1838.2656
2345.04;0.36264378;-0.14357182;745.5735;-8484.345;-7738.7715;-2282.9165;0.0;0.0;1838.2656
2345.045;0.36276522;-0.14550652;746.0012;-8485.4375;-7739.4365;-2294.4414;0.0;0.0;1838.2656
2345.05;0.36283064;-0.14791009;746.1702;-8486.707;-7740.5366;-2308.0344;0.0;0.0;1838.2656
2345.055;0.36282268;-0.15025143;746.0369;-8487.691;-7741.6543;-2320.68;0.0;0.0;1838.2656
2345.06;0.3627422;-0.15233353;745.6337;-8488.516;-7742.882;-2331.356;0.0;0.0;1838.2656
2345.065;0.36260715;-0.15374169;745.03577;-8488.689;-7743.654;-2337.9258;0.0;0.0;1838.2656
2345.07;0.36243773;-0.15413404;744.33203;-8487.868;-7743.536;-2338.682;0.0;0.0;1838.2656
2345.075;0.36225772;-0.15379016;743.61743;-8486.552;-7742.9346;-2335.3562;0.0;0.0;1838.2656
2345.08;0.3620888;-0.15258428;742.97375;-8484.577;-7741.6035;-2327.419;0.0;0.0;1838.2656
2345.085;0.3619485;-0.1507886;742.46515;-8482.346;-7739.8804;-2316.4988;0.0;0.0;1838.2656
2345.09;0.36184958;-0.14820397;742.1369;-8479.324;-7737.1875;-2301.5886;0.0;0.0;1838.2656
2345.095;0.36179963;-0.14557229;742.01105;-8476.345;-7734.3335;-2286.8237;0.0;0.0;1838.2656
2345.1;0.36179987;-0.14282568;742.0808;-8473.312;-7731.2305;-2271.8162;0.0;0.0;1838.2656
2345.105;0.3618447;-0.14031838;742.32263;-8470.519;-7728.196;-2258.4727;0.0;0.0;1838.2656
2345.11;0.3619272;-0.13830833;742.70526;-8468.199;-7725.494;-2248.1528;0.0;0.0;1838.2656
2345.115;0.36203873;-0.13696365;743.1896;-8466.472;-7723.282;-2241.7058;0.0;0.0;1838.2656
2345.12;0.36216828;-0.13630164;743.74097;-8465.369;-7721.628;-2239.1577;0.0;0.0;1838.2656
2345.125;0.36231047;-0.13651644;744.33203;-8464.946;-7720.6143;-2241.5244;0.0;0.0;1838.2656
2345.13;0.3624572;-0.1373619;744.9403;-8464.914;-7719.9736;-2247.4036;0.0;0.0;1838.2656
2345.135;0.36260512;-0.13896158;745.53894;-8465.492;-7719.953;-2257.4229;0.0;0.0;1838.2656
2345.14;0.36274278;-0.1411917;746.0742;-8466.391;-7720.3164;-2270.792;0.0;0.0;1838.2656
2345.145;0.36285552;-0.14400627;746.47974;-8467.826;-7721.3467;-2287.1248;0.0;0.0;1838.2656
2345.15;0.36292577;-0.14720756;746.69275;-8469.525;-7722.8325;-2305.2053;0.0;0.0;1838.2656
2345.155;0.36294195;-0.1505331;746.6775;-8471.357;-7724.6797;-2323.5144;0.0;0.0;1838.2656
2345.16;0.36290056;-0.15355171;746.4328;-8472.871;-7726.4385;-2339.672;0.0;0.0;1838.2656
2345.165;0.36280686;-0.15605187;745.998;-8473.928;-7727.9297;-2352.5903;0.0;0.0;1838.2656
2345.17;0.36267588;-0.15773812;745.42346;-8474.34;-7728.9165;-2360.7407;0.0;0.0;1838.2656
2345.175;0.36251798;-0.15868853;744.76526;-8474.227;-7729.4614;-2364.6655;0.0;0.0;1838.2656
2345.18;0.3623502;-0.1588503;744.08704;-8473.612;-7729.5254;-2364.2012;0.0;0.0;1838.2656
2345.185;0.362187;-0.15813285;743.44763;-8472.323;-7728.8755;-2358.9658;0.0;0.0;1838.2656
2345.19;0.36204284;-0.15672094;742.9115;-8470.508;-7727.596;-2350.1072;0.0;0.0;1838.2656
2345.195;0.36193416;-0.15483187;742.54395;-8468.392;-7725.8477;-2338.954;0.0;0.0;1838.2656
2345.2;0.36187512;-0.15258022;742.39087;-8465.854;-7723.463;-2326.2307;0.0;0.0;1838.2656
2345.205;0.3618724;-0.1503365;742.46387;-8463.23;-7720.7666;-2314.003;0.0;0.0;1838.2656
2345.21;0.36192247;-0.14880413;742.7544;-8461.551;-7718.7964;-2306.1333;0.0;0.0;1838.2656
2345.215;0.36202267;-0.14772587;743.22;-8459.973;-7716.753;-2301.1182;0.0;0.0;1838.2656
2345.22;0.36215326;-0.1474183;743.7843;-8458.98;-7715.1963;-2300.5505;0.0;0.0;1838.2656
2345.225;0.36229604;-0.1478513;744.3727;-8458.356;-7713.984;-2304.1152;0.0;0.0;1838.2656
2345.23;0.3624324;-0.14917387;744.9026;-8458.377;-7713.4746;-2312.4688;0.0;0.0;1838.2656
2345.235;0.36254188;-0.151226;745.3041;-8458.908;-7713.604;-2324.5889;0.0;0.0;1838.2656
2345.24;0.36261177;-0.15353176;745.52277;-8459.531;-7714.0083;-2337.742;0.0;0.0;1838.2656
2345.245;0.36263078;-0.15617359;745.5325;-8460.389;-7714.8564;-2352.3306;0.0;0.0;1838.2656
2345.25;0.36259967;-0.1585275;745.3491;-8460.746;-7715.397;-2364.945;0.0;0.0;1838.2656
2345.255;0.36252782;-0.16068065;745.0276;-8461.071;-7716.044;-2376.1763;0.0;0.0;1838.2656
2345.26;0.36243418;-0.16238852;744.6371;-8461.002;-7716.3647;-2384.814;0.0;0.0;1838.2656
2345.265;0.36233386;-0.16370095;744.25464;-8460.701;-7716.4463;-2391.2869;0.0;0.0;1838.2656
2345.27;0.36224815;-0.16439278;743.94147;-8459.752;-7715.8105;-2394.4758;0.0;0.0;1838.2656
2345.275;0.3621837;-0.16459285;743.7154;-8458.41;-7714.695;-2395.127;0.0;0.0;1838.2656
2345.28;0.36214107;-0.16482963;743.5631;-8457.186;-7713.6226;-2396.1282;0.0;0.0;1838.2656
2345.285;0.36211222;-0.16474204;743.4601;-8455.77;-7712.3096;-2395.439;0.0;0.0;1838.2656
2345.29;0.36209348;-0.16449665;743.3964;-8454.055;-7710.658;-2393.9585;0.0;0.0;1838.2656
2345.295;0.36208424;-0.16424465;743.37244;-8452.602;-7709.229;-2392.5208;0.0;0.0;1838.2656
2345.3;0.36208647;-0.16427658;743.4032;-8451.46;-7708.0566;-2392.7583;0.0;0.0;1838.2656
2345.305;0.36210433;-0.16425887;743.503;-8450.197;-7706.6943;-2392.8604;0.0;0.0;1838.2656
2345.31;0.36214054;-0.16434559;743.6785;-8449.072;-7705.3936;-2393.6897;0.0;0.0;1838.2656
2345.315;0.36219513;-0.16479672;743.92737;-8448.199;-7704.272;-2396.6753;0.0;0.0;1838.2656
2345.32;0.36226553;-0.1654863;744.23145;-8447.441;-7703.21;-2401.0862;0.0;0.0;1838.2656
2345.325;0.36234567;-0.16662095;744.57367;-8447.086;-7702.512;-2408.028;0.0;0.0;1838.2656
2345.33;0.3624328;-0.168384;744.92554;-8447.491;-7702.5654;-2418.4546;0.0;0.0;1838.2656
2345.335;0.36251566;-0.17027292;745.2617;-8447.721;-7702.459;-2429.544;0.0;0.0;1838.2656
2345.34;0.3625927;-0.17265186;745.5564;-8448.447;-7702.8906;-2443.2527;0.0;0.0;1838.2656
2345.345;0.3626528;-0.17522778;745.77325;-8449.339;-7703.5654;-2457.892;0.0;0.0;1838.2656
2345.35;0.3626894;-0.17790687;745.8788;-8450.344;-7704.465;-2472.878;0.0;0.0;1838.2656
2345.355;0.3626929;-0.18049999;745.8335;-8451.194;-7705.361;-2487.0876;0.0;0.0;1838.2656
2345.36;0.36265478;-0.18300812;745.62317;-8452.127;-7706.504;-2500.499;0.0;0.0;1838.2656
2345.365;0.3625786;-0.1853278;745.26215;-8453.161;-7707.899;-2512.5693;0.0;0.0;1838.2656
2345.37;0.36246946;-0.18685542;744.79553;-8453.287;-7708.4917;-2520.0608;0.0;0.0;1838.2656
2345.375;0.3623455;-0.18751806;744.2905;-8452.57;-7708.28;-2522.705;0.0;0.0;1838.2656
2345.38;0.3622219;-0.18772292;743.8114;-8451.741;-7707.9297;-2522.8765;0.0;0.0;1838.2656
2345.385;0.3621147;-0.18753806;743.4286;-8450.631;-7707.202;-2521.0916;0.0;0.0;1838.2656
2345.39;0.3620409;-0.18689263;743.1935;-8449.012;-7705.8184;-2517.0618;0.0;0.0;1838.2656
2345.395;0.36200824;-0.18613411;743.13983;-8447.352;-7704.212;-2512.7715;0.0;0.0;1838.2656
2345.4;0.36202353;-0.18585141;743.286;-8446.35;-7703.0635;-2511.505;0.0;0.0;1838.2656
2345.405;0.3620874;-0.18569869;743.61304;-8445.242;-7701.629;-2511.3167;0.0;0.0;1838.2656
2345.41;0.3621879;-0.18622817;744.07007;-8444.703;-7700.633;-2515.1506;0.0;0.0;1838.2656
2345.415;0.36231008;-0.18746598;744.581;-8444.783;-7700.202;-2522.9988;0.0;0.0;1838.2656
2345.42;0.3624307;-0.18906571;745.0421;-8444.856;-7699.8145;-2532.7432;0.0;0.0;1838.2656
2345.425;0.3625226;-0.19125275;745.3545;-8445.395;-7700.04;-2545.4292;0.0;0.0;1838.2656
2345.43;0.36256638;-0.19374806;745.4539;-8446.203;-7700.749;-2559.389;0.0;0.0;1838.2656
2345.435;0.36255386;-0.19612381;745.32074;-8446.839;-7701.518;-2572.2244;0.0;0.0;1838.2656
2345.44;0.36248603;-0.19813363;744.98425;-8447.061;-7702.076;-2582.6353;0.0;0.0;1838.2656
2345.445;0.3623792;-0.1997457;744.5166;-8447.193;-7702.677;-2590.59;0.0;0.0;1838.2656
2345.45;0.36225283;-0.20048223;744.0024;-8446.408;-7702.406;-2593.6235;0.0;0.0;1838.2656
2345.455;0.3621286;-0.20069279;743.524;-8445.39;-7701.8657;-2593.828;0.0;0.0;1838.2656
2345.46;0.36202404;-0.20035726;743.1439;-8443.918;-7700.774;-2591.2173;0.0;0.0;1838.2656
2345.465;0.36195064;-0.19943425;742.8987;-8441.8125;-7698.914;-2585.6367;0.0;0.0;1838.2656
2345.47;0.36191276;-0.19849539;742.7899;-8439.9375;-7697.1475;-2580.2417;0.0;0.0;1838.2656
2345.475;0.3619056;-0.19755135;742.8107;-8438.084;-7695.2734;-2575.0771;0.0;0.0;1838.2656
2345.48;0.36192998;-0.19687599;742.9409;-8436.611;-7693.6704;-2571.6128;0.0;0.0;1838.2656
2345.485;0.3619752;-0.19661623;743.1565;-8435.477;-7692.3203;-2570.6116;0.0;0.0;1838.2656
2345.49;0.36204;-0.19667095;743.4488;-8434.482;-7691.0337;-2571.4978;0.0;0.0;1838.2656
2345.495;0.3621212;-0.19694497;743.81036;-8433.371;-7689.5605;-2573.7322;0.0;0.0;1838.2656
2345.5;0.36221808;-0.19796653;744.22363;-8432.811;-7688.587;-2580.1924;0.0;0.0;1838.2656
2345.505;0.3623217;-0.19971363;744.65594;-8432.957;-7688.3013;-2590.692;0.0;0.0;1838.2656
2345.51;0.36242455;-0.20195475;745.077;-8433.314;-7688.2373;-2603.8936;0.0;0.0;1838.2656
2345.515;0.36251956;-0.20479573;745.44147;-8434.156;-7688.715;-2620.2898;0.0;0.0;1838.2656
2345.52;0.36259177;-0.20811686;745.6998;-8435.295;-7689.595;-2639.1218;0.0;0.0;1838.2656
2345.525;0.3626334;-0.2115682;745.82764;-8436.375;-7690.5474;-2658.411;0.0;0.0;1838.2656
2345.53;0.36264154;-0.21505636;745.8221;-8437.514;-7691.6914;-2677.6362;0.0;0.0;1838.2656
2345.535;0.36261964;-0.21838258;745.7031;-8438.447;-7692.744;-2695.742;0.0;0.0;1838.2656
2345.54;0.3625753;-0.22164348;745.5112;-8439.533;-7694.022;-2713.3413;0.0;0.0;1838.2656
2345.545;0.3625209;-0.22461064;745.29346;-8440.465;-7695.1714;-2729.269;0.0;0.0;1838.2656
2345.55;0.3624664;-0.22706904;745.08563;-8440.902;-7695.817;-2742.411;0.0;0.0;1838.2656
2345.555;0.36241835;-0.22924444;744.9049;-8441.391;-7696.486;-2754.0464;0.0;0.0;1838.2656
2345.56;0.36237723;-0.23096177;744.74695;-8441.493;-7696.746;-2763.2012;0.0;0.0;1838.2656
2345.565;0.36233956;-0.23246731;744.5845;-8441.569;-7696.985;-2771.179;0.0;0.0;1838.2656
2345.57;0.36229518;-0.23350392;744.3882;-8441.371;-7696.983;-2776.5032;0.0;0.0;1838.2656
2345.575;0.3622408;-0.23420501;744.1499;-8441.096;-7696.946;-2779.8928;0.0;0.0;1838.2656
2345.58;0.36217684;-0.23454888;743.87854;-8440.65;-7696.772;-2781.2466;0.0;0.0;1838.2656
2345.585;0.3621083;-0.23435022;743.60645;-8439.796;-7696.1895;-2779.6067;0.0;0.0;1838.2656
2345.59;0.36204696;-0.2337278;743.3905;-8438.693;-7695.3027;-2775.7424;0.0;0.0;1838.2656
2345.595;0.36200863;-0.23278211;743.2934;-8437.31;-7694.016;-2770.3328;0.0;0.0;1838.2656
2345.6;0.36200655;-0.23179789;743.3452;-8436.025;-7692.68;-2765.0088;0.0;0.0;1838.2656
2345.605;0.36204055;-0.23094626;743.55286;-8435.064;-7691.5117;-2760.7275;0.0;0.0;1838.2656
2345.61;0.3621121;-0.23058565;743.88965;-8434.758;-7690.868;-2759.4124;0.0;0.0;1838.2656
2345.615;0.36220443;-0.23048465;744.2804;-8434.402;-7690.122;-2759.6367;0.0;0.0;1838.2656
2345.62;0.36229643;-0.23064038;744.63873;-8434.361;-7689.7227;-2761.2124;0.0;0.0;1838.2656
2345.625;0.3623681;-0.23120098;744.87683;-8434.605;-7689.7285;-2764.78;0.0;0.0;1838.2656
2345.63;0.3623981;-0.2320046;744.9315;-8435.303;-7690.371;-2769.3213;0.0;0.0;1838.2656
2345.635;0.3623799;-0.2324493;744.78955;-8435.525;-7690.736;-2771.4897;0.0;0.0;1838.2656
2345.64;0.3623168;-0.23239926;744.48096;-8435.217;-7690.736;-2770.5967;0.0;0.0;1838.2656
2345.645;0.3622218;-0.23204243;744.077;-8435.011;-7690.9336;-2767.821;0.0;0.0;1838.2656
2345.65;0.3621175;-0.23110257;743.66455;-8434.32;-7690.656;-2761.8127;0.0;0.0;1838.2656
2345.655;0.3620227;-0.22961587;743.3064;-8433.346;-7690.039;-2752.8977;0.0;0.0;1838.2656
2345.66;0.36194724;-0.22746935;743.0337;-8431.913;-7688.8794;-2740.5146;0.0;0.0;1838.2656
2345.665;0.36189416;-0.22512512;742.8397;-8430.446;-7687.6064;-2727.1987;0.0;0.0;1838.2656
2345.67;0.36185464;-0.22260998;742.68115;-8429.086;-7686.405;-2713.0112;0.0;0.0;1838.2656
2345.675;0.36181659;-0.21933782;742.5118;-8426.746;-7684.2344;-2694.627;0.0;0.0;1838.2656
2345.68;0.36177108;-0.21602921;742.3141;-8424.592;-7682.278;-2675.9854;0.0;0.0;1838.2656
2345.685;0.36172014;-0.212472;742.1062;-8422.39;-7680.283;-2655.9524;0.0;0.0;1838.2656
2345.69;0.36167228;-0.20850426;741.9376;-8419.783;-7677.8457;-2633.734;0.0;0.0;1838.2656
2345.695;0.36164355;-0.20453013;741.8686;-8417.176;-7675.307;-2611.6794;0.0;0.0;1838.2656
2345.7;0.36164653;-0.20053007;741.94464;-8414.475;-7672.53;-2589.772;0.0;0.0;1838.2656
2345.705;0.36168954;-0.19678864;742.1904;-8412.124;-7669.9336;-2569.6304;0.0;0.0;1838.2656
2345.71;0.36177474;-0.19374982;742.6079;-8410.445;-7667.8374;-2553.7068;0.0;0.0;1838.2656
2345.715;0.36189902;-0.19130799;743.16864;-8409.243;-7666.0747;-2541.362;0.0;0.0;1838.2656
2345.72;0.36205038;-0.18981771;743.8198;-8408.783;-7664.9634;-2534.4458;0.0;0.0;1838.2656
2345.725;0.36221358;-0.18932846;744.4932;-8409.131;-7664.6377;-2533.0945;0.0;0.0;1838.2656
2345.73;0.36237058;-0.18945327;745.11285;-8409.67;-7664.557;-2535.022;0.0;0.0;1838.2656
2345.735;0.36250255;-0.19047557;745.6085;-8410.918;-7665.3096;-2541.6511;0.0;0.0;1838.2656
2345.74;0.36259592;-0.19195333;745.9358;-8412.455;-7666.5195;-2550.455;0.0;0.0;1838.2656
2345.745;0.362644;-0.19378632;746.0701;-8414.125;-7668.0547;-2560.8325;0.0;0.0;1838.2656
2345.75;0.36264354;-0.19567615;746.00696;-8415.825;-7669.8184;-2571.1282;0.0;0.0;1838.2656
2345.755;0.36259678;-0.19730671;745.75903;-8417.213;-7671.454;-2579.6245;0.0;0.0;1838.2656
2345.76;0.36250862;-0.19834009;745.3451;-8417.982;-7672.637;-2584.4954;0.0;0.0;1838.2656
2345.765;0.3623846;-0.1987855;744.79895;-8418.387;-7673.588;-2585.8596;0.0;0.0;1838.2656
2345.77;0.36223692;-0.19859397;744.17676;-8418.107;-7673.9307;-2583.559;0.0;0.0;1838.2656
2345.775;0.36208177;-0.19752106;743.5577;-8417.453;-7673.8955;-2576.4038;0.0;0.0;1838.2656
2345.78;0.36194292;-0.19575699;743.04785;-8416.142;-7673.0938;-2565.6558;0.0;0.0;1838.2656
2345.785;0.36184755;-0.19367729;742.7578;-8414.793;-7672.035;-2553.6064;0.0;0.0;1838.2656
2345.79;0.36182067;-0.19123279;742.772;-8413.061;-7670.2886;-2540.1538;0.0;0.0;1838.2656
2345.795;0.36187455;-0.1893154;743.1304;-8412.035;-7668.905;-2530.2966;0.0;0.0;1838.2656
2345.8;0.36201277;-0.18810013;743.8062;-8411.608;-7667.8022;-2524.9463;0.0;0.0;1838.2656
2345.805;0.36221406;-0.18771917;744.6994;-8411.684;-7666.9844;-2524.6318;0.0;0.0;1838.2656
2345.81;0.36244833;-0.18873802;745.6755;-8413.006;-7667.3306;-2532.203;0.0;0.0;1838.2656
2345.815;0.3626798;-0.19103211;746.5892;-8415.34;-7668.7505;-2546.6816;0.0;0.0;1838.2656
2345.82;0.3628749;-0.19412;747.3141;-8418.094;-7670.78;-2565.1606;0.0;0.0;1838.2656
2345.825;0.36300927;-0.19809128;747.7778;-8421.684;-7673.906;-2587.9888;0.0;0.0;1838.2656
2345.83;0.36307472;-0.20239316;747.967;-8425.334;-7677.367;-2612.091;0.0;0.0;1838.2656
2345.835;0.36307678;-0.20663904;747.89844;-8428.813;-7680.915;-2635.3691;0.0;0.0;1838.2656
2345.84;0.36301962;-0.21068373;747.61945;-8432.207;-7684.5874;-2657.117;0.0;0.0;1838.2656
2345.845;0.36292318;-0.21415839;747.19104;-8435.193;-7688.0024;-2675.422;0.0;0.0;1838.2656
2345.85;0.36279747;-0.21696888;746.6571;-8437.669;-7691.0117;-2689.8535;0.0;0.0;1838.2656
2345.855;0.36265373;-0.21908253;746.063;-8439.707;-7693.644;-2700.3215;0.0;0.0;1838.2656
2345.86;0.3625024;-0.22028634;745.44714;-8441.037;-7695.59;-2705.7288;0.0;0.0;1838.2656
2345.865;0.36235154;-0.22057779;744.8417;-8441.59;-7696.748;-2706.125;0.0;0.0;1838.2656
2345.87;0.3622089;-0.21999516;744.2855;-8441.512;-7697.226;-2701.7996;0.0;0.0;1838.2656
2345.875;0.3620857;-0.21877907;743.82275;-8441.189;-7697.3667;-2694.1677;0.0;0.0;1838.2656
2345.88;0.3619918;-0.21694876;743.49866;-8440.316;-7696.818;-2683.4258;0.0;0.0;1838.2656
2345.885;0.36193824;-0.21484287;743.34204;-8439.317;-7695.9756;-2671.4988;0.0;0.0;1838.2656
2345.89;0.3619267;-0.21269764;743.3627;-8438.531;-7695.1685;-2659.7097;0.0;0.0;1838.2656
2345.895;0.3619588;-0.21061286;743.5509;-8437.729;-7694.1777;-2648.5889;0.0;0.0;1838.2656
2345.9;0.36202604;-0.20893057;743.8633;-8437.535;-7693.672;-2639.9363;0.0;0.0;1838.2656
2345.905;0.36211517;-0.20767102;744.2439;-8437.672;-7693.4277;-2633.7512;0.0;0.0;1838.2656
2345.91;0.36221138;-0.2069659;744.6347;-8438.305;-7693.67;-2630.6443;0.0;0.0;1838.2656
2345.915;0.36230177;-0.20647758;744.9773;-8438.911;-7693.9336;-2628.6365;0.0;0.0;1838.2656
2345.92;0.36237183;-0.206417;745.234;-8439.957;-7694.723;-2628.816;0.0;0.0;1838.2656
2345.925;0.36241886;-0.20670447;745.39;-8441.281;-7695.891;-2630.7131;0.0;0.0;1838.2656
2345.93;0.36243927;-0.2069761;745.4486;-8442.541;-7697.0923;-2632.3284;0.0;0.0;1838.2656
2345.935;0.36243948;-0.20726117;745.42816;-8443.695;-7698.267;-2633.8596;0.0;0.0;1838.2656
2345.94;0.3624224;-0.20746581;745.34955;-8444.771;-7699.422;-2634.8308;0.0;0.0;1838.2656
2345.945;0.36239573;-0.20777613;745.2405;-8446.016;-7700.7754;-2636.3242;0.0;0.0;1838.2656
2345.95;0.36236492;-0.20760892;745.12506;-8446.74;-7701.615;-2635.1711;0.0;0.0;1838.2656
2345.955;0.36233658;-0.20750943;745.0277;-8447.432;-7702.404;-2634.4277;0.0;0.0;1838.2656
2345.96;0.36231536;-0.20729704;744.95984;-8448.152;-7703.1924;-2633.1206;0.0;0.0;1838.2656
2345.965;0.36230236;-0.20709157;744.9278;-8448.784;-7703.8564;-2631.9236;0.0;0.0;1838.2656
2345.97;0.36229897;-0.20700003;744.9369;-8449.676;-7704.739;-2631.4368;0.0;0.0;1838.2656
2345.975;0.36230624;-0.20693576;744.98706;-8450.357;-7705.37;-2631.1829;0.0;0.0;1838.2656
2345.98;0.36232197;-0.206796;745.05566;-8450.967;-7705.911;-2630.5493;0.0;0.0;1838.2656
2345.985;0.36233726;-0.20699814;745.10736;-8451.957;-7706.8496;-2631.7673;0.0;0.0;1838.2656
2345.99;0.36234325;-0.20711848;745.10815;-8452.764;-7707.6553;-2632.4326;0.0;0.0;1838.2656
2345.995;0.36233303;-0.20713654;745.02686;-8453.446;-7708.4194;-2632.3696;0.0;0.0;1838.2656
2346.0;0.36229923;-0.20701216;744.8508;-8454.045;-7709.1943;-2631.3315;0.0;0.0;1838.2656
2346.005;0.36224437;-0.20669192;744.5935;-8454.483;-7709.8896;-2629.051;0.0;0.0;1838.2656
2346.01;0.3621736;-0.20607162;744.2965;-8454.719;-7710.4224;-2625.0361;0.0;0.0;1838.2656
2346.015;0.362102;-0.205052;744.0088;-8454.546;-7710.537;-2618.8376;0.0;0.0;1838.2656
2346.02;0.36203814;-0.20372559;743.76666;-8454.257;-7710.49;-2611.0386;0.0;0.0;1838.2656
2346.025;0.36198962;-0.20232084;743.5919;-8453.891;-7710.299;-2602.9421;0.0;0.0;1838.2656
2346.03;0.36195746;-0.20052211;743.47565;-8452.988;-7709.5127;-2592.79;0.0;0.0;1838.2656
2346.035;0.36193588;-0.1987519;743.3972;-8452.216;-7708.8184;-2582.8708;0.0;0.0;1838.2656
2346.04;0.3619212;-0.19698851;743.3415;-8451.508;-7708.1665;-2573.0347;0.0;0.0;1838.2656
2346.045;0.36191002;-0.19530848;743.30664;-8450.841;-7707.534;-2563.7;0.0;0.0;1838.2656
2346.05;0.36190554;-0.1934427;743.30237;-8449.81;-7706.5073;-2553.4019;0.0;0.0;1838.2656
2346.055;0.36190993;-0.19186403;743.3343;-8449.154;-7705.82;-2544.7598;0.0;0.0;1838.2656
2346.06;0.36192337;-0.1903646;743.4081;-8448.455;-7705.047;-2536.6382;0.0;0.0;1838.2656
2346.065;0.36194837;-0.1890097;743.5239;-8447.91;-7704.386;-2529.398;0.0;0.0;1838.2656
2346.07;0.36198258;-0.18807492;743.6833;-8447.6;-7703.9165;-2524.5615;0.0;0.0;1838.2656
2346.075;0.36202845;-0.18726687;743.88586;-8447.337;-7703.451;-2520.5105;0.0;0.0;1838.2656
2346.08;0.36208287;-0.18698062;744.12024;-8447.695;-7703.575;-2519.4006;0.0;0.0;1838.2656
2346.085;0.36214334;-0.18680836;744.3729;-8447.864;-7703.491;-2518.956;0.0;0.0;1838.2656
2346.09;0.36220485;-0.18704362;744.6255;-8448.264;-7703.638;-2520.7585;0.0;0.0;1838.2656
2346.095;0.36226302;-0.18753466;744.8464;-8448.915;-7704.069;-2523.9082;0.0;0.0;1838.2656
2346.1;0.362307;-0.1883152;744.9961;-8449.828;-7704.832;-2528.5122;0.0;0.0;1838.2656
2346.105;0.36232764;-0.18930349;745.03406;-8450.916;-7705.882;-2534.0383;0.0;0.0;1838.2656
2346.11;0.36231524;-0.19007334;744.917;-8451.729;-7706.8115;-2538.0498;0.0;0.0;1838.2656
