time;temperature;pressure;kinetic_energy;potential_energy;total_energy;virial;msd;diffusion;volume
205.005;1.1993078;1.3995318;2458.448;-6358.8965;-3900.4485;2801.2378;0.0;0.0;1838.2656
205.01;1.199092;1.4169955;2457.999;-6347.535;-3889.5361;2898.4448;0.0;0.0;1838.2656
205.015;1.1990939;1.4336625;2458.4336;-6336.9824;-3878.5488;2989.4905;0.0;0.0;1838.2656
205.02;1.1993043;1.448422;2459.674;-6327.899;-3868.2249;3068.405;0.0;0.0;1838.2656
205.025;1.1996815;1.4604416;2461.4998;-6320.993;-3859.4934;3131.039;0.0;0.0;1838.2656
205.03;1.2001498;1.4693419;2463.5369;-6316.1123;-3852.5754;3176.0479;0.0;0.0;1838.2656
205.035;1.2005945;1.4752077;2465.2815;-6313.2603;-3847.9788;3204.9077;0.0;0.0;1838.2656
205.04;1.2008891;1.4787668;2466.3179;-6311.423;-3845.105;3222.463;0.0;0.0;1838.2656
205.045;1.2009753;1.4806978;2466.5354;-6310.319;-3843.7834;3232.6765;0.0;0.0;1838.2656
205.05;1.2008772;1.4817905;2466.172;-6309.5483;-3843.3762;3239.4297;0.0;0.0;1838.2656
205.055;1.2007006;1.4829459;2465.7222;-6307.809;-3842.087;3246.7014;0.0;0.0;1838.2656
205.06;1.2005826;1.4833589;2465.7192;-6306.2583;-3840.539;3248.9844;0.0;0.0;1838.2656
205.065;1.200631;1.4822515;2466.4622;-6305.72;-3839.258;3241.3918;0.0;0.0;1838.2656
205.07;1.2008662;1.4785482;2467.939;-6307.022;-3839.083;3218.0151;0.0;0.0;1838.2656
205.075;1.2012554;1.4718035;2470.078;-6310.134;-3840.056;3176.5413;0.0;0.0;1838.2656
205.08;1.2018;1.4606977;2472.8418;-6316.823;-3843.9814;3109.7673;0.0;0.0;1838.2656
205.085;1.202471;1.4450037;2475.9932;-6326.8633;-3850.87;3016.9158;0.0;0.0;1838.2656
205.09;1.203168;1.4248009;2479.029;-6340.048;-3861.0188;2899.4292;0.0;0.0;1838.2656
205.095;1.2037469;1.4010633;2481.3398;-6355.328;-3873.9883;2763.9004;0.0;0.0;1838.2656
205.1;1.2040612;1.3744804;2482.3196;-6372.826;-3890.5066;2615.341;0.0;0.0;1838.2656
205.105;1.2039768;1.3481569;2481.5547;-6389.287;-3907.7324;2471.7024;0.0;0.0;1838.2656
205.11;1.2034547;1.3236233;2479.0732;-6403.985;-3924.9116;2341.367;0.0;0.0;1838.2656
205.115;1.2025743;1.3036695;2475.372;-6414.328;-3938.956;2238.728;0.0;0.0;1838.2656
205.12;1.2015133;1.2885288;2471.2366;-6421.043;-3949.8064;2163.5012;0.0;0.0;1838.2656
205.125;1.2004744;1.2783401;2467.4702;-6423.9375;-3956.4673;2114.846;0.0;0.0;1838.2656
205.13;1.1996353;1.2720125;2464.7654;-6424.302;-3959.5364;2085.3594;0.0;0.0;1838.2656
205.135;1.199138;1.267738;2463.5957;-6423.852;-3960.2563;2064.1255;0.0;0.0;1838.2656
205.14;1.1990373;1.2637638;2463.897;-6423.8384;-3959.9414;2041.6067;0.0;0.0;1838.2656
205.145;1.1992066;1.2590005;2464.9402;-6424.914;-3959.9739;2013.252;0.0;0.0;1838.2656
205.15;1.1994078;1.2528584;2465.797;-6427.6055;-3961.8083;1977.665;0.0;0.0;1838.2656
205.155;1.199454;1.2465277;2465.9429;-6430.4297;-3964.4868;1942.461;0.0;0.0;1838.2656
205.16;1.1993154;1.2405;2465.4937;-6433.039;-3967.5454;1910.118;0.0;0.0;1838.2656
205.165;1.199101;1.2354879;2464.952;-6434.844;-3969.8923;1883.5614;0.0;0.0;1838.2656
205.17;1.198947;1.2305075;2464.8098;-6437.1465;-3972.3367;1856.3792;0.0;0.0;1838.2656
205.175;1.1989349;1.225303;2465.2002;-6440.1636;-3974.9634;1826.8971;0.0;0.0;1838.2656
205.18;1.199021;1.2195348;2465.7463;-6444.003;-3978.2566;1793.994;0.0;0.0;1838.2656
205.185;1.1990516;1.2135925;2465.772;-6448.1885;-3982.4165;1761.1719;0.0;0.0;1838.2656
205.19;1.1988577;1.2088251;2464.6692;-6451.2896;-3986.6204;1737.0864;0.0;0.0;1838.2656
205.195;1.1983354;1.2068803;2462.1997;-6451.878;-3989.6782;1731.3007;0.0;0.0;1838.2656
205.2;1.1975038;1.2090561;2458.6223;-6449.075;-3990.453;1750.4543;0.0;0.0;1838.2656
205.205;1.1964929;1.2161182;2454.6243;-6442.516;-3987.8918;1797.3966;0.0;0.0;1838.2656
205.21;1.1955186;1.2277515;2451.113;-6432.2974;-3981.1843;1868.5736;0.0;0.0;1838.2656
205.215;1.1947994;1.2423201;2448.906;-6420.313;-3971.407;1953.3306;0.0;0.0;1838.2656
205.22;1.1944939;1.2577358;2448.5066;-6408.3047;-3959.798;2039.1445;0.0;0.0;1838.2656
205.225;1.1946553;1.2720437;2449.9128;-6397.4946;-3947.5818;2115.2373;0.0;0.0;1838.2656
205.23;1.1951921;1.2829204;2452.5479;-6389.787;-3937.2393;2169.9497;0.0;0.0;1838.2656
205.235;1.1958905;1.2897872;2455.5051;-6385.5664;-3930.0613;2201.9038;0.0;0.0;1838.2656
205.24;1.1965306;1.293011;2458.0308;-6383.889;-3925.8584;2214.6316;0.0;0.0;1838.2656
205.245;1.1969869;1.2934318;2459.7742;-6383.922;-3924.1477;2213.465;0.0;0.0;1838.2656
205.25;1.1972363;1.2918266;2460.7007;-6385.4434;-3924.7427;2202.7595;0.0;0.0;1838.2656
205.255;1.1972951;1.2894281;2460.847;-6387.2373;-3926.3904;2189.2402;0.0;0.0;1838.2656
205.26;1.1971699;1.2871997;2460.2148;-6388.159;-3927.9443;2178.215;0.0;0.0;1838.2656
205.265;1.1968685;1.2856383;2459.036;-6388.671;-3929.635;2171.9622;0.0;0.0;1838.2656
205.27;1.1965204;1.2849504;2457.9805;-6388.287;-3930.3066;2170.2793;0.0;0.0;1838.2656
205.275;1.196332;1.2842324;2457.9692;-6388.003;-3930.0337;2166.3423;0.0;0.0;1838.2656
205.28;1.1965222;1.2816062;2459.6685;-6389.605;-3929.9365;2148.4612;0.0;0.0;1838.2656
205.285;1.1971446;1.275136;2462.9175;-6394.6406;-3931.7231;2106.2812;0.0;0.0;1838.2656
205.29;1.1980171;1.263737;2466.7266;-6403.8555;-3937.129;2035.7992;0.0;0.0;1838.2656
205.295;1.1988238;1.2480544;2469.8423;-6416.116;-3946.274;1943.0822;0.0;0.0;1838.2656
205.3;1.199298;1.229601;2471.4548;-6430.132;-3958.677;1838.0906;0.0;0.0;1838.2656
205.305;1.1993593;1.2100071;2471.4517;-6444.879;-3973.4272;1730.0404;0.0;0.0;1838.2656
205.31;1.1990638;1.1916482;2470.1433;-6458.4204;-3988.277;1631.4115;0.0;0.0;1838.2656
205.315;1.1985159;1.1761045;2467.903;-6469.192;-4001.2888;1550.1715;0.0;0.0;1838.2656
205.32;1.1977857;1.1638665;2464.967;-6477.8286;-4012.8616;1488.5533;0.0;0.0;1838.2656
205.325;1.196911;1.1558218;2461.4062;-6483.327;-4021.921;1451.3096;0.0;0.0;1838.2656
205.33;1.1958894;1.1532056;2457.298;-6484.707;-4027.409;1445.0985;0.0;0.0;1838.2656
205.335;1.1947762;1.1561987;2452.9683;-6481.871;-4028.9028;1470.265;0.0;0.0;1838.2656
205.34;1.1936877;1.164639;2448.914;-6474.9736;-4026.0596;1524.9192;0.0;0.0;1838.2656
205.345;1.1927527;1.1775936;2445.6929;-6465.0186;-4019.3257;1602.8035;0.0;0.0;1838.2656
205.35;1.1921122;1.1935468;2443.875;-6453.1924;-4009.3174;1694.4177;0.0;0.0;1838.2656
205.355;1.1918901;1.2102244;2443.8833;-6441.6226;-3997.7393;1786.3751;0.0;0.0;1838.2656
205.36;1.1921394;1.2251196;2445.6934;-6432.709;-3987.0156;1864.899;0.0;0.0;1838.2656
205.365;1.1927509;1.2369251;2448.5618;-6426.6562;-3978.0945;1924.2672;0.0;0.0;1838.2656
205.37;1.1934346;1.2452964;2451.2048;-6423.8037;-3972.5989;1965.147;0.0;0.0;1838.2656
205.375;1.1938678;1.251147;2452.4849;-6422.831;-3970.3462;1994.8518;0.0;0.0;1838.2656
205.38;1.1938652;1.2574154;2452.0002;-6420.7725;-3968.7722;2030.3896;0.0;0.0;1838.2656
205.385;1.1934685;1.2652475;2450.162;-6417.0684;-3966.9062;2077.2588;0.0;0.0;1838.2656
205.39;1.1928643;1.2755277;2447.8286;-6411.0967;-3963.268;2138.6191;0.0;0.0;1838.2656
205.395;1.1922876;1.2879158;2445.9097;-6403.741;-3957.8315;2210.775;0.0;0.0;1838.2656
205.4;1.1919247;1.3013366;2444.9673;-6395.826;-3950.859;2286.673;0.0;0.0;1838.2656
205.405;1.1918292;1.3147494;2445.0618;-6388.082;-3943.0203;2360.452;0.0;0.0;1838.2656
205.41;1.1919512;1.327077;2445.9036;-6381.2046;-3935.301;2426.7534;0.0;0.0;1838.2656
205.415;1.1921909;1.3377231;2447.1045;-6375.298;-3928.1934;2483.0627;0.0;0.0;1838.2656
205.42;1.192464;1.345893;2448.4333;-6371.74;-3923.307;2525.46;0.0;0.0;1838.2656
205.425;1.1927551;1.3520174;2449.8608;-6369.3423;-3919.4814;2556.3796;0.0;0.0;1838.2656
205.43;1.193066;1.3559887;2451.3418;-6368.29;-3916.9482;2575.3188;0.0;0.0;1838.2656
205.435;1.1933608;1.3571569;2452.5774;-6369.626;-3917.0486;2579.2898;0.0;0.0;1838.2656
205.44;1.1935189;1.3568931;2453.0156;-6371.535;-3918.5195;2576.9583;0.0;0.0;1838.2656
205.445;1.1934054;1.3565465;2452.2715;-6372.86;-3920.5884;2576.5356;0.0;0.0;1838.2656
205.45;1.1930003;1.3576894;2450.5083;-6371.934;-3921.4258;2586.3643;0.0;0.0;1838.2656
205.455;1.192435;1.3605034;2448.4084;-6369.2104;-3920.802;2606.0833;0.0;0.0;1838.2656
205.46;1.1919191;1.3644298;2446.83;-6365.372;-3918.542;2630.893;0.0;0.0;1838.2656
205.465;1.1916472;1.3683516;2446.4666;-6361.51;-3915.0432;2653.2478;0.0;0.0;1838.2656
205.47;1.1917412;1.3708296;2447.667;-6358.667;-3911.0;2664.5127;0.0;0.0;1838.2656
205.475;1.1922247;1.3694582;2450.423;-6358.905;-3908.4817;2651.4377;0.0;0.0;1838.2656
205.48;1.1930323;1.3630363;2454.185;-6363.1865;-3909.0015;2608.4978;0.0;0.0;1838.2656
205.485;1.1939286;1.3511506;2457.8328;-6371.6553;-3913.8225;2535.6555;0.0;0.0;1838.2656
205.49;1.1946002;1.3352046;2460.1975;-6382.832;-3922.6345;2442.9873;0.0;0.0;1838.2656
205.495;1.1948264;1.3177633;2460.609;-6394.459;-3933.85;2345.9792;0.0;0.0;1838.2656
205.5;1.1945506;1.3009369;2459.1162;-6405.083;-3945.9668;2256.1707;0.0;0.0;1838.2656
205.505;1.1938922;1.2870526;2456.413;-6412.8613;-3956.4482;2185.0078;0.0;0.0;1838.2656
205.51;1.1930902;1.2768079;2453.511;-6417.5117;-3964.0007;2134.3142;0.0;0.0;1838.2656
205.515;1.1923915;1.2692877;2451.282;-6420.388;-3969.1062;2097.2998;0.0;0.0;1838.2656
205.52;1.1919388;1.2638788;2450.0374;-6421.9995;-3971.9622;2069.9607;0.0;0.0;1838.2656
205.525;1.1917053;1.2592376;2449.4368;-6423.5537;-3974.117;2045.5663;0.0;0.0;1838.2656
205.53;1.1915295;1.255512;2448.7588;-6424.5923;-3975.8335;2026.3759;0.0;0.0;1838.2656
205.535;1.1912295;1.2533542;2447.3943;-6424.2207;-3976.8264;2017.2048;0.0;0.0;1838.2656
205.54;1.1907142;1.2534866;2445.1865;-6422.0146;-3976.8281;2022.3511;0.0;0.0;1838.2656
205.545;1.1900316;1.2567921;2442.5134;-6417.4478;-3974.9343;2045.9261;0.0;0.0;1838.2656
205.55;1.1893406;1.2631727;2440.134;-6410.244;-3970.11;2085.8728;0.0;0.0;1838.2656
205.555;1.188852;1.2711829;2438.8516;-6402.3457;-3963.4941;2132.612;0.0;0.0;1838.2656
205.56;1.1887257;1.2792431;2439.1367;-6394.7607;-3955.624;2176.4924;0.0;0.0;1838.2656
205.565;1.1889962;1.2850583;2440.911;-6389.8647;-3948.9539;2205.0134;0.0;0.0;1838.2656
205.57;1.1895611;1.2874172;2443.6548;-6387.8574;-3944.2026;2212.5344;0.0;0.0;1838.2656
205.575;1.1902558;1.2860413;2446.7104;-6388.7305;-3942.02;2198.8354;0.0;0.0;1838.2656
205.58;1.1909332;1.2808425;2449.5671;-6392.203;-3942.636;2164.4521;0.0;0.0;1838.2656
205.585;1.1915002;1.2720119;2451.9011;-6398.509;-3946.6077;2111.0854;0.0;0.0;1838.2656
205.59;1.1918987;1.2605729;2453.482;-6406.7544;-3953.2725;2044.8398;0.0;0.0;1838.2656
205.595;1.1920795;1.2479167;2454.104;-6415.536;-3961.4321;1973.799;0.0;0.0;1838.2656
205.6;1.1920052;1.2352384;2453.711;-6424.3223;-3970.6113;1904.6674;0.0;0.0;1838.2656
205.605;1.1917062;1.2234602;2452.5554;-6432.2363;-3979.681;1842.0234;0.0;0.0;1838.2656
205.61;1.1912918;1.2134209;2451.1626;-6438.9814;-3987.8188;1789.4448;0.0;0.0;1838.2656
205.615;1.1909082;1.2049779;2450.0005;-6444.8047;-3994.8042;1745.2069;0.0;0.0;1838.2656
205.62;1.1906158;1.1979623;2449.1304;-6449.7314;-4000.601;1708.2578;0.0;0.0;1838.2656
205.625;1.1903592;1.1919734;2448.1787;-6454.414;-4006.2354;1677.1339;0.0;0.0;1838.2656
205.63;1.1900086;1.1883441;2446.6313;-6457.075;-4010.4438;1660.2139;0.0;0.0;1838.2656
205.635;1.1894618;1.187466;2444.2822;-6457.5605;-4013.2783;1660.07;0.0;0.0;1838.2656
205.64;1.1887461;1.1899089;2441.4143;-6455.644;-4014.2297;1679.2772;0.0;0.0;1838.2656
205.645;1.1879901;1.1959105;2438.6345;-6451.2676;-4012.633;1717.934;0.0;0.0;1838.2656
205.65;1.1873593;1.2049553;2436.528;-6444.5654;-4008.0374;1772.0281;0.0;0.0;1838.2656
205.655;1.1869504;1.2155727;2435.3137;-6437.197;-4001.883;1833.0093;0.0;0.0;1838.2656
205.66;1.1867492;1.2268461;2434.7983;-6429.6846;-3994.8862;1896.2102;0.0;0.0;1838.2656
205.665;1.1866643;1.2385122;2434.6277;-6421.8945;-3987.2668;1960.8877;0.0;0.0;1838.2656
205.67;1.1866194;1.2497835;2434.5906;-6414.5537;-3979.9631;2023.1207;0.0;0.0;1838.2656
205.675;1.1866006;1.2604772;2434.7732;-6407.674;-3972.9006;2081.7295;0.0;0.0;1838.2656
205.68;1.1866704;1.2700549;2435.469;-6401.6562;-3966.1873;2133.1572;0.0;0.0;1838.2656
205.685;1.1869013;1.2773509;2436.8818;-6397.538;-3960.6562;2170.5676;0.0;0.0;1838.2656
205.69;1.1873002;1.2823021;2438.9006;-6395.0557;-3956.155;2193.8342;0.0;0.0;1838.2656
205.695;1.187795;1.2836508;2441.169;-6395.4287;-3954.2598;2196.7354;0.0;0.0;1838.2656
205.7;1.1882733;1.2819852;2443.1577;-6397.789;-3954.6313;2183.5723;0.0;0.0;1838.2656
205.705;1.1885948;1.2780837;2444.331;-6401.574;-3957.2432;2159.7097;0.0;0.0;1838.2656
205.71;1.1886541;1.2731054;2444.3442;-6405.6094;-3961.2651;2132.2295;0.0;0.0;1838.2656
205.715;1.1884118;1.2688353;2443.1777;-6408.607;-3965.4292;2111.014;0.0;0.0;1838.2656
205.72;1.1879188;1.266542;2441.0933;-6409.466;-3968.3726;2102.5354;0.0;0.0;1838.2656
205.725;1.1872637;1.2667035;2438.4863;-6408.55;-3970.0635;2108.64;0.0;0.0;1838.2656
205.73;1.1865555;1.2698548;2435.7441;-6405.031;-3969.2866;2131.5024;0.0;0.0;1838.2656
205.735;1.1858667;1.2761006;2433.1123;-6398.797;-3965.6846;2171.2112;0.0;0.0;1838.2656
205.74;1.1852399;1.2848567;2430.7576;-6390.707;-3959.9495;2224.2085;0.0;0.0;1838.2656
205.745;1.1847196;1.2957627;2429.0154;-6380.712;-3951.6965;2287.837;0.0;0.0;1838.2656
205.75;1.1844378;1.3070662;2428.5515;-6370.559;-3942.0076;2351.1013;0.0;0.0;1838.2656
205.755;1.1845789;1.3166883;2430.076;-6362.131;-3932.055;2401.1165;0.0;0.0;1838.2656
205.76;1.1852596;1.3220756;2433.7004;-6357.2354;-3923.535;2423.5774;0.0;0.0;1838.2656
205.765;1.1863451;1.3214879;2438.5134;-6357.248;-3918.7346;2410.7104;0.0;0.0;1838.2656
205.77;1.18749;1.3145728;2443.0725;-6362.282;-3919.2097;2363.457;0.0;0.0;1838.2656
205.775;1.188364;1.302362;2446.331;-6371.14;-3924.809;2289.5994;0.0;0.0;1838.2656
205.78;1.1888362;1.2873447;2447.9607;-6381.7593;-3933.7986;2203.523;0.0;0.0;1838.2656
205.785;1.188914;1.2713854;2448.0632;-6392.6816;-3944.6184;2115.3057;0.0;0.0;1838.2656
205.79;1.1886629;1.2563936;2446.9768;-6402.4004;-3955.4236;2034.8015;0.0;0.0;1838.2656
205.795;1.1881943;1.2432576;2445.1494;-6410.6426;-3965.4932;1966.0149;0.0;0.0;1838.2656
205.8;1.187614;1.2322897;2442.9338;-6417.3203;-3974.3865;1909.9597;0.0;0.0;1838.2656
205.805;1.1869806;1.2243673;2440.5264;-6421.753;-3981.2266;1871.084;0.0;0.0;1838.2656
205.81;1.1863279;1.2195714;2438.0579;-6423.49;-3985.4324;1849.5728;0.0;0.0;1838.2656
205.815;1.1856903;1.2174927;2435.7632;-6423.1245;-3987.3613;1842.6986;0.0;0.0;1838.2656
205.82;1.1851566;1.2176503;2434.121;-6421.189;-3987.0679;1846.8519;0.0;0.0;1838.2656
205.825;1.184868;1.2186564;2433.6292;-6419.025;-3985.3958;1853.3845;0.0;0.0;1838.2656
205.83;1.1849005;1.2189151;2434.429;-6417.8276;-3983.3987;1853.211;0.0;0.0;1838.2656
205.835;1.1852114;1.217097;2436.136;-6418.743;-3982.6072;1839.7706;0.0;0.0;1838.2656
205.84;1.1856318;1.212655;2437.9983;-6422.044;-3984.0457;1811.5493;0.0;0.0;1838.2656
205.845;1.1859663;1.2062943;2439.3152;-6426.7373;-3987.422;1773.8379;0.0;0.0;1838.2656
205.85;1.1860979;1.198629;2439.839;-6432.37;-3992.531;1730.5168;0.0;0.0;1838.2656
205.855;1.1860522;1.1908636;2439.782;-6437.7285;-3997.9465;1687.8071;0.0;0.0;1838.2656
205.86;1.1859175;1.1832393;2439.4744;-6443.0264;-4003.552;1646.3756;0.0;0.0;1838.2656
205.865;1.185761;1.176075;2439.0774;-6447.799;-4008.7214;1607.6594;0.0;0.0;1838.2656
205.87;1.185578;1.1692808;2438.433;-6452.3916;-4013.9585;1571.4802;0.0;0.0;1838.2656
205.875;1.1852837;1.1634754;2437.1685;-6456.2256;-4019.0571;1541.9933;0.0;0.0;1838.2656
205.88;1.1847956;1.1600842;2435.0837;-6457.9688;-4022.885;1527.4619;0.0;0.0;1838.2656
205.885;1.184131;1.1596749;2432.4465;-6457.045;-4024.5984;1530.4784;0.0;0.0;1838.2656
205.89;1.1834201;1.1624738;2429.8079;-6453.66;-4023.8523;1551.1908;0.0;0.0;1838.2656
205.895;1.1828012;1.1680405;2427.704;-6448.112;-4020.4077;1586.0981;0.0;0.0;1838.2656
205.9;1.1823874;1.17494;2426.5051;-6442.12;-4015.615;1626.5449;0.0;0.0;1838.2656
205.905;1.1822267;1.1824853;2426.3071;-6435.884;-4009.5767;1668.5524;0.0;0.0;1838.2656
205.91;1.1822873;1.1895888;2426.7874;-6430.2793;-4003.492;1706.7659;0.0;0.0;1838.2656
205.915;1.1824166;1.1956683;2427.2964;-6425.826;-3998.5298;1739.2747;0.0;0.0;1838.2656
205.92;1.1824548;1.2015008;2427.2952;-6421.508;-3994.2126;1771.4426;0.0;0.0;1838.2656
205.925;1.1823207;1.2077653;2426.6873;-6416.536;-3989.8489;1807.2059;0.0;0.0;1838.2656
205.93;1.1820794;1.2146984;2425.9497;-6410.9814;-3985.0317;1846.9154;0.0;0.0;1838.2656
205.935;1.1819221;1.2217455;2425.911;-6405.5522;-3979.6414;1885.8561;0.0;0.0;1838.2656
205.94;1.1820476;1.2271799;2427.1658;-6401.8467;-3974.681;1913.3162;0.0;0.0;1838.2656
205.945;1.1825011;1.22972;2429.5125;-6400.9995;-3971.487;1922.6312;0.0;0.0;1838.2656
205.95;1.1831008;1.2288384;2432.066;-6403.0303;-3970.9644;1912.6627;0.0;0.0;1838.2656
205.955;1.1835986;1.2253339;2433.92;-6406.694;-3972.774;1889.6274;0.0;0.0;1838.2656
205.96;1.1838286;1.2202122;2434.6494;-6411.383;-3976.7334;1859.9236;0.0;0.0;1838.2656
205.965;1.1837788;1.2150077;2434.3254;-6416.032;-3981.7068;1831.8694;0.0;0.0;1838.2656
205.97;1.183508;1.2108204;2433.18;-6419.3955;-3986.2156;1811.0687;0.0;0.0;1838.2656
205.975;1.1830692;1.2084572;2431.3892;-6421.465;-3990.0757;1801.6177;0.0;0.0;1838.2656
205.98;1.1825001;1.2086085;2429.1514;-6421.5244;-3992.373;1806.9276;0.0;0.0;1838.2656
205.985;1.1818703;1.2115622;2426.8193;-6419.451;-3992.6318;1827.8807;0.0;0.0;1838.2656
205.99;1.181287;1.2171202;2424.8186;-6415.434;-3990.6155;1862.533;0.0;0.0;1838.2656
205.995;1.1808437;1.2246102;2423.4592;-6409.991;-3986.532;1906.5582;0.0;0.0;1838.2656
206.0;1.1805851;1.2330216;2422.8809;-6404.1113;-3981.2305;1954.1018;0.0;0.0;1838.2656
206.005;1.1805273;1.2410007;2423.132;-6399.084;-3975.952;1997.602;0.0;0.0;1838.2656
206.01;1.1806662;1.2476965;2424.161;-6395.1577;-3970.9968;2032.4712;0.0;0.0;1838.2656
206.015;1.1809623;1.2522697;2425.645;-6393.243;-3967.5981;2054.7234;0.0;0.0;1838.2656
206.02;1.1812868;1.2545841;2427.1057;-6393.1045;-3965.9988;2064.565;0.0;0.0;1838.2656
206.025;1.1815434;1.2552596;2428.2134;-6393.7744;-3965.561;2066.0747;0.0;0.0;1838.2656
206.03;1.181686;1.2546934;2428.931;-6395.048;-3966.117;2061.5176;0.0;0.0;1838.2656
206.035;1.1817529;1.2528077;2429.369;-6397.4766;-3968.1077;2050.2427;0.0;0.0;1838.2656
206.04;1.1817558;1.2507508;2429.4595;-6399.704;-3970.2446;2038.7174;0.0;0.0;1838.2656
206.045;1.1816442;1.2486606;2428.8982;-6402.002;-3973.1038;2028.3134;0.0;0.0;1838.2656
206.05;1.1813221;1.2477461;2427.3364;-6403.1816;-3975.8452;2026.3938;0.0;0.0;1838.2656
206.055;1.1807328;1.2500135;2424.6985;-6401.4;-3976.7014;2044.1731;0.0;0.0;1838.2656
206.06;1.1799307;1.2556738;2421.463;-6397.1475;-3975.6846;2081.86;0.0;0.0;1838.2656
206.065;1.1791155;1.2651446;2418.545;-6389.7134;-3971.1685;2139.926;0.0;0.0;1838.2656
206.07;1.1785159;1.2772983;2416.6091;-6380.6436;-3964.0344;2210.8225;0.0;0.0;1838.2656
206.075;1.1781868;1.2906191;2415.6565;-6371.1533;-3955.4968;2286.189;0.0;0.0;1838.2656
206.08;1.1780497;1.3042558;2415.3833;-6361.76;-3946.3765;2361.94;0.0;0.0;1838.2656
206.085;1.1780503;1.3173296;2415.7844;-6353.0225;-3937.238;2433.2366;0.0;0.0;1838.2656
206.09;1.1782502;1.3290018;2417.146;-6345.2847;-3928.1387;2494.883;0.0;0.0;1838.2656
206.095;1.1787127;1.3377081;2419.5913;-6340.26;-3920.6685;2538.0063;0.0;0.0;1838.2656
206.1;1.1794007;1.342113;2422.732;-6339.147;-3916.415;2556.0166;0.0;0.0;1838.2656
206.105;1.1801323;1.3424641;2425.6921;-6340.8325;-3915.1404;2552.0325;0.0;0.0;1838.2656
206.11;1.1806676;1.3396294;2427.6694;-6344.6553;-3916.9858;2532.4453;0.0;0.0;1838.2656
206.115;1.1808976;1.3347554;2428.4692;-6349.697;-3921.2275;2503.9663;0.0;0.0;1838.2656
206.12;1.1808729;1.3291726;2428.3901;-6354.687;-3926.2969;2473.337;0.0;0.0;1838.2656
206.125;1.1807;1.323786;2427.8508;-6358.728;-3930.8772;2444.709;0.0;0.0;1838.2656
206.13;1.1804763;1.3179549;2427.236;-6363.55;-3936.3137;2413.7812;0.0;0.0;1838.2656
206.135;1.1802889;1.3126789;2426.8992;-6367.0664;-3940.1672;2385.3594;0.0;0.0;1838.2656
206.14;1.1802073;1.3065379;2426.9905;-6371.282;-3944.2917;2351.3103;0.0;0.0;1838.2656
206.145;1.180209;1.2993119;2427.3064;-6376.578;-3949.2717;2310.828;0.0;0.0;1838.2656
206.15;1.1802108;1.2916678;2427.4856;-6381.3916;-3953.906;2268.3147;0.0;0.0;1838.2656
206.155;1.1801331;1.2835436;2427.3735;-6386.627;-3959.2534;2223.735;0.0;0.0;1838.2656
