time;temperature;pressure;kinetic_energy;potential_energy;total_energy;virial;msd;diffusion;volume
10.005;0.20079236;-0.28663105;413.4079;-8928.107;-8514.699;-2407.5278;0.0;0.0;1838.2656
10.01;0.20086303;-0.28877395;413.4892;-8929.694;-8516.205;-2419.508;0.0;0.0;1838.2656
10.015;0.20092936;-0.2908864;413.5564;-8931.359;-8517.803;-2431.2922;0.0;0.0;1838.2656
10.02;0.20099375;-0.29252827;413.61865;-8932.597;-8518.979;-2440.4712;0.0;0.0;1838.2656
10.025;0.20105805;-0.29385883;413.6761;-8933.477;-8519.801;-2447.9238;0.0;0.0;1838.2656
10.03;0.20112057;-0.29502565;413.72687;-8934.314;-8520.588;-2454.4602;0.0;0.0;1838.2656
10.035;0.20118201;-0.295703;413.77487;-8934.547;-8520.772;-2458.2917;0.0;0.0;1838.2656
10.04;0.20124374;-0.29638174;413.82495;-8935.182;-8521.356;-2462.135;0.0;0.0;1838.2656
10.045;0.20130703;-0.2970432;413.88223;-8935.943;-8522.062;-2465.8975;0.0;0.0;1838.2656
10.05;0.20137297;-0.2971229;413.95364;-8935.983;-8522.029;-2466.4797;0.0;0.0;1838.2656
10.055;0.20144378;-0.29712838;414.04904;-8936.03;-8521.981;-2466.701;0.0;0.0;1838.2656
10.06;0.20152195;-0.29706267;414.17218;-8936.1;-8521.928;-2466.5847;0.0;0.0;1838.2656
10.065;0.20160624;-0.29694307;414.31967;-8936.311;-8521.991;-2466.2202;0.0;0.0;1838.2656
10.07;0.20169598;-0.29663008;414.48654;-8936.234;-8521.748;-2464.828;0.0;0.0;1838.2656
10.075;0.20178941;-0.29626647;414.66617;-8936.163;-8521.497;-2463.182;0.0;0.0;1838.2656
10.08;0.20188469;-0.29602733;414.84848;-8936.338;-8521.489;-2462.2275;0.0;0.0;1838.2656
10.085;0.201979;-0.2956552;415.02377;-8936.473;-8521.449;-2460.526;0.0;0.0;1838.2656
10.09;0.2020706;-0.2950441;415.18842;-8936.2;-8521.012;-2457.485;0.0;0.0;1838.2656
10.095;0.20215946;-0.2942946;415.34213;-8935.882;-8520.54;-2453.6592;0.0;0.0;1838.2656
10.1;0.20224571;-0.2936075;415.48563;-8935.676;-8520.19;-2450.157;0.0;0.0;1838.2656
10.105;0.20232965;-0.2925569;415.62305;-8935.034;-8519.411;-2444.638;0.0;0.0;1838.2656
10.11;0.20241338;-0.29154012;415.761;-8934.619;-8518.858;-2439.3066;0.0;0.0;1838.2656
10.115;0.20249818;-0.29045144;415.9087;-8934.092;-8518.184;-2433.5981;0.0;0.0;1838.2656
10.12;0.20258725;-0.2893529;416.08026;-8933.652;-8517.572;-2427.883;0.0;0.0;1838.2656
10.125;0.202684;-0.28812605;416.28128;-8933.084;-8516.803;-2421.5193;0.0;0.0;1838.2656
10.13;0.20278746;-0.28685948;416.51447;-8932.461;-8515.946;-2415.0007;0.0;0.0;1838.2656
10.135;0.20289972;-0.28572416;416.77823;-8932.129;-8515.351;-2409.267;0.0;0.0;1838.2656
10.14;0.20301779;-0.28469166;417.0662;-8931.762;-8514.695;-2404.1492;0.0;0.0;1838.2656
10.145;0.20314111;-0.2837092;417.3726;-8931.512;-8514.139;-2399.3438;0.0;0.0;1838.2656
10.15;0.20326753;-0.2828685;417.68988;-8931.492;-8513.803;-2395.342;0.0;0.0;1838.2656
10.155;0.20339541;-0.28195322;418.00992;-8931.175;-8513.165;-2390.9346;0.0;0.0;1838.2656
10.16;0.20352226;-0.2813196;418.3192;-8931.336;-8513.017;-2388.0588;0.0;0.0;1838.2656
10.165;0.20364407;-0.28061274;418.6054;-8931.289;-8512.684;-2384.7332;0.0;0.0;1838.2656
10.17;0.20375875;-0.28012875;418.85495;-8931.691;-8512.837;-2382.563;0.0;0.0;1838.2656
10.175;0.20386204;-0.27945033;419.0549;-8931.871;-8512.816;-2379.2214;0.0;0.0;1838.2656
10.18;0.20395212;-0.27885827;419.19092;-8932.495;-8513.305;-2376.2285;0.0;0.0;1838.2656
10.185;0.20402436;-0.27794364;419.25708;-8932.642;-8513.385;-2371.317;0.0;0.0;1838.2656
10.19;0.20408092;-0.2767424;419.25726;-8932.761;-8513.504;-2364.6926;0.0;0.0;1838.2656
10.195;0.20412211;-0.27502516;419.2013;-8932.275;-8513.074;-2355.1104;0.0;0.0;1838.2656
10.2;0.20415273;-0.27282378;419.10672;-8931.474;-8512.367;-2342.7812;0.0;0.0;1838.2656
10.205;0.20417695;-0.27017993;418.99255;-8930.401;-8511.409;-2327.9724;0.0;0.0;1838.2656
10.21;0.20420003;-0.26719403;418.88696;-8929.07;-8510.184;-2311.2947;0.0;0.0;1838.2656
10.215;0.20423043;-0.263906;418.81967;-8927.6455;-8508.826;-2293.0273;0.0;0.0;1838.2656
10.22;0.2042741;-0.26030436;418.81696;-8925.924;-8507.106;-2273.1597;0.0;0.0;1838.2656
10.225;0.20433737;-0.25649893;418.90298;-8923.891;-8504.987;-2252.3455;0.0;0.0;1838.2656
10.23;0.20442535;-0.25264674;419.0934;-8921.948;-8502.8545;-2231.4824;0.0;0.0;1838.2656
10.235;0.20453998;-0.2491972;419.39813;-8920.374;-8500.976;-2213.068;0.0;0.0;1838.2656
10.24;0.2046831;-0.24575758;419.81378;-8918.568;-8498.755;-2194.9307;0.0;0.0;1838.2656
10.245;0.20485078;-0.24298075;420.32504;-8917.344;-8497.019;-2180.6396;0.0;0.0;1838.2656
10.25;0.20503838;-0.24064377;420.90594;-8916.217;-8495.311;-2168.9133;0.0;0.0;1838.2656
10.255;0.20523743;-0.23890434;421.51865;-8915.455;-8493.937;-2160.5461;0.0;0.0;1838.2656
10.26;0.2054379;-0.23801729;422.12598;-8915.373;-8493.247;-2156.869;0.0;0.0;1838.2656
10.265;0.2056318;-0.237699;422.69693;-8915.639;-8492.941;-2156.2556;0.0;0.0;1838.2656
10.27;0.20581296;-0.23783243;423.21237;-8915.942;-8492.73;-2158.0222;0.0;0.0;1838.2656
10.275;0.2059787;-0.23847309;423.663;-8916.658;-8492.995;-2162.4565;0.0;0.0;1838.2656
10.28;0.20612822;-0.23959334;424.0541;-8917.6455;-8493.592;-2169.4167;0.0;0.0;1838.2656
10.285;0.20626487;-0.2410096;424.39502;-8918.705;-8494.311;-2177.909;0.0;0.0;1838.2656
10.29;0.20639032;-0.24271925;424.69855;-8919.908;-8495.21;-2187.9443;0.0;0.0;1838.2656
10.295;0.20650902;-0.24462678;424.9741;-8921.181;-8496.207;-2199.0151;0.0;0.0;1838.2656
10.3;0.20662081;-0.24661118;425.22342;-8922.343;-8497.119;-2210.4575;0.0;0.0;1838.2656
10.305;0.20672649;-0.24867322;425.4471;-8923.389;-8497.941;-2222.2764;0.0;0.0;1838.2656
10.31;0.2068256;-0.25074252;425.64136;-8924.354;-8498.712;-2234.0767;0.0;0.0;1838.2656
10.315;0.2069168;-0.25309503;425.8047;-8925.74;-8499.936;-2247.377;0.0;0.0;1838.2656
10.32;0.20700082;-0.25555918;425.93726;-8927.29;-8501.353;-2261.2314;0.0;0.0;1838.2656
10.325;0.2070773;-0.25774786;426.0407;-8928.303;-8502.262;-2273.5085;0.0;0.0;1838.2656
10.33;0.20714773;-0.25982505;426.12158;-8929.291;-8503.17;-2285.1255;0.0;0.0;1838.2656
10.335;0.207214;-0.2618153;426.18878;-8930.139;-8503.95;-2296.2358;0.0;0.0;1838.2656
10.34;0.2072784;-0.26384652;426.24963;-8931.283;-8505.033;-2307.5593;0.0;0.0;1838.2656
10.345;0.20734234;-0.26533836;426.30942;-8931.627;-8505.317;-2315.906;0.0;0.0;1838.2656
10.35;0.20740695;-0.26667136;426.37357;-8931.779;-8505.405;-2323.3855;0.0;0.0;1838.2656
10.355;0.20747358;-0.2679471;426.44598;-8932.044;-8505.598;-2330.566;0.0;0.0;1838.2656
10.36;0.20754264;-0.2689925;426.52692;-8931.934;-8505.406;-2336.493;0.0;0.0;1838.2656
10.365;0.20761386;-0.27001226;426.6205;-8931.999;-8505.379;-2342.3037;0.0;0.0;1838.2656
10.37;0.2076896;-0.2708522;426.73694;-8931.818;-8505.081;-2347.1687;0.0;0.0;1838.2656
10.375;0.20777217;-0.2715912;426.87878;-8931.514;-8504.635;-2351.5278;0.0;0.0;1838.2656
10.38;0.2078605;-0.2724635;427.04642;-8931.6;-8504.553;-2356.6738;0.0;0.0;1838.2656
10.385;0.20795567;-0.2733469;427.24127;-8931.463;-8504.222;-2361.9353;0.0;0.0;1838.2656
10.39;0.2080566;-0.27384907;427.46085;-8930.813;-8503.353;-2365.1438;0.0;0.0;1838.2656
10.395;0.20816328;-0.27465862;427.69995;-8930.615;-8502.915;-2370.0864;0.0;0.0;1838.2656
10.4;0.2082728;-0.27562636;427.94214;-8930.469;-8502.526;-2375.9077;0.0;0.0;1838.2656
10.405;0.20837961;-0.27651995;428.16827;-8930.329;-8502.161;-2381.288;0.0;0.0;1838.2656
10.41;0.20848052;-0.2773727;428.364;-8929.937;-8501.572;-2386.382;0.0;0.0;1838.2656
10.415;0.20857185;-0.27814063;428.51453;-8929.603;-8501.088;-2390.9182;0.0;0.0;1838.2656
10.42;0.20865043;-0.2789707;428.61395;-8929.26;-8500.6455;-2395.6946;0.0;0.0;1838.2656
10.425;0.20871708;-0.27947676;428.66223;-8928.611;-8499.949;-2398.582;0.0;0.0;1838.2656
10.43;0.20877147;-0.27992532;428.66785;-8928.139;-8499.471;-2401.067;0.0;0.0;1838.2656
10.435;0.20881853;-0.28017485;428.64877;-8927.522;-8498.874;-2402.405;0.0;0.0;1838.2656
10.44;0.20886248;-0.27976677;428.62656;-8926.092;-8497.465;-2400.11;0.0;0.0;1838.2656
10.445;0.20890966;-0.27935523;428.62616;-8924.862;-8496.236;-2397.8396;0.0;0.0;1838.2656
10.45;0.20896581;-0.27847952;428.66907;-8923.143;-8494.474;-2393.096;0.0;0.0;1838.2656
10.455;0.20903537;-0.27760944;428.77524;-8921.615;-8492.84;-2388.5103;0.0;0.0;1838.2656
10.46;0.20912312;-0.2766479;428.95715;-8920.107;-8491.15;-2383.5713;0.0;0.0;1838.2656
10.465;0.20922981;-0.27558687;429.2135;-8918.367;-8489.153;-2378.2327;0.0;0.0;1838.2656
10.47;0.2093534;-0.27480513;429.53577;-8917.112;-8487.576;-2374.5662;0.0;0.0;1838.2656
10.475;0.20949118;-0.27427778;429.90924;-8916.055;-8486.1455;-2372.4048;0.0;0.0;1838.2656
10.48;0.2096383;-0.27371883;430.31113;-8914.914;-8484.603;-2370.126;0.0;0.0;1838.2656
10.485;0.20978844;-0.27357438;430.7171;-8914.278;-8483.562;-2370.1414;0.0;0.0;1838.2656
10.49;0.20993614;-0.2734885;431.10837;-8913.56;-8482.451;-2370.4502;0.0;0.0;1838.2656
10.495;0.21007812;-0.2736476;431.4718;-8913.105;-8481.634;-2372.0544;0.0;0.0;1838.2656
10.5;0.21021155;-0.2739212;431.79953;-8912.644;-8480.844;-2374.2188;0.0;0.0;1838.2656
10.505;0.21033585;-0.27411705;432.09277;-8912.188;-8480.096;-2375.8855;0.0;0.0;1838.2656
10.51;0.21045242;-0.2742811;432.3501;-8911.629;-8479.279;-2377.305;0.0;0.0;1838.2656
10.515;0.2105595;-0.2745643;432.57178;-8911.345;-8478.773;-2379.3098;0.0;0.0;1838.2656
10.52;0.21065907;-0.2752342;432.76532;-8911.689;-8478.924;-2383.391;0.0;0.0;1838.2656
10.525;0.21075283;-0.27545288;432.9393;-8911.42;-8478.48;-2384.9453;0.0;0.0;1838.2656
10.53;0.21084376;-0.27554774;433.10468;-8911.072;-8477.968;-2385.7993;0.0;0.0;1838.2656
10.535;0.21093386;-0.2754575;433.27524;-8910.533;-8477.258;-2385.6426;0.0;0.0;1838.2656
10.54;0.21102826;-0.27564535;433.46555;-8910.375;-8476.909;-2387.059;0.0;0.0;1838.2656
10.545;0.21112812;-0.27561757;433.68335;-8910.029;-8476.346;-2387.3418;0.0;0.0;1838.2656
10.55;0.21123594;-0.2754607;433.9317;-8909.369;-8475.4375;-2386.9731;0.0;0.0;1838.2656
10.555;0.21134983;-0.27560964;434.19955;-8909.218;-8475.019;-2388.3303;0.0;0.0;1838.2656
10.56;0.2114659;-0.2757038;434.46814;-8908.9;-8474.433;-2389.3867;0.0;0.0;1838.2656
10.565;0.21157902;-0.27573824;434.72064;-8908.475;-8473.754;-2390.0818;0.0;0.0;1838.2656
10.57;0.21168627;-0.27607143;434.94257;-8908.437;-8473.494;-2392.363;0.0;0.0;1838.2656
10.575;0.21178418;-0.2764759;435.1308;-8908.588;-8473.457;-2394.97;0.0;0.0;1838.2656
10.58;0.21187529;-0.2767413;435.28925;-8908.42;-8473.131;-2396.7505;0.0;0.0;1838.2656
10.585;0.21195918;-0.27698222;435.42426;-8908.283;-8472.859;-2398.349;0.0;0.0;1838.2656
10.59;0.21203984;-0.27702275;435.55304;-8908.0;-8472.447;-2398.8303;0.0;0.0;1838.2656
10.595;0.21212175;-0.27711818;435.6952;-8907.695;-8472.0;-2399.6409;0.0;0.0;1838.2656
10.6;0.21220966;-0.27703783;435.86578;-8907.168;-8471.302;-2399.5388;0.0;0.0;1838.2656
10.605;0.21230605;-0.2771681;436.07538;-8906.962;-8470.887;-2400.6765;0.0;0.0;1838.2656
10.61;0.21241316;-0.277035;436.3285;-8906.41;-8470.082;-2400.4487;0.0;0.0;1838.2656
10.615;0.21253055;-0.2770694;436.61877;-8905.992;-8469.373;-2401.219;0.0;0.0;1838.2656
10.62;0.21265545;-0.2771753;436.93997;-8905.506;-8468.565;-2402.4453;0.0;0.0;1838.2656
10.625;0.21278729;-0.27742523;437.28436;-8905.174;-8467.89;-2404.5125;0.0;0.0;1838.2656
10.63;0.21292266;-0.2780713;437.63773;-8905.369;-8467.731;-2408.7822;0.0;0.0;1838.2656
10.635;0.21305801;-0.27887326;437.98328;-8905.576;-8467.593;-2413.896;0.0;0.0;1838.2656
10.64;0.21318886;-0.2798662;438.30914;-8905.955;-8467.6455;-2420.0234;0.0;0.0;1838.2656
10.645;0.21331401;-0.28076532;438.60297;-8906.093;-8467.49;-2425.5696;0.0;0.0;1838.2656
10.65;0.21342885;-0.2818862;438.8561;-8906.518;-8467.661;-2432.2573;0.0;0.0;1838.2656
10.655;0.21353422;-0.28311032;439.06744;-8907.055;-8467.987;-2439.431;0.0;0.0;1838.2656
10.66;0.21362889;-0.28424352;439.23468;-8907.53;-8468.296;-2446.0146;0.0;0.0;1838.2656
10.665;0.2137135;-0.28530928;439.36475;-8907.82;-8468.455;-2452.152;0.0;0.0;1838.2656
10.67;0.21379082;-0.28614745;439.46558;-8907.903;-8468.4375;-2456.976;0.0;0.0;1838.2656
10.675;0.21386221;-0.28698426;439.54388;-8908.078;-8468.534;-2461.7478;0.0;0.0;1838.2656
10.68;0.21392927;-0.28766084;439.61084;-8908.224;-8468.613;-2465.6128;0.0;0.0;1838.2656
10.685;0.21399613;-0.28832045;439.6814;-8908.281;-8468.6;-2469.3916;0.0;0.0;1838.2656
10.69;0.2140655;-0.2884843;439.76123;-8907.791;-8468.029;-2470.4548;0.0;0.0;1838.2656
10.695;0.21413772;-0.28869262;439.85446;-8907.25;-8467.3955;-2471.79;0.0;0.0;1838.2656
10.7;0.21421406;-0.28888035;439.96857;-8906.879;-8466.91;-2473.0537;0.0;0.0;1838.2656
10.705;0.21429689;-0.28899264;440.11017;-8906.343;-8466.232;-2473.956;0.0;0.0;1838.2656
10.71;0.21438703;-0.28901377;440.28577;-8905.683;-8465.396;-2474.4238;0.0;0.0;1838.2656
10.715;0.21448666;-0.28894454;440.50165;-8904.923;-8464.421;-2474.4739;0.0;0.0;1838.2656
10.72;0.21459639;-0.28918636;440.75885;-8904.459;-8463.7;-2476.3218;0.0;0.0;1838.2656
10.725;0.21471556;-0.28951046;441.05637;-8904.046;-8462.989;-2478.704;0.0;0.0;1838.2656
10.73;0.21484426;-0.29006806;441.38568;-8903.913;-8462.527;-2482.4377;0.0;0.0;1838.2656
10.735;0.2149778;-0.29092214;441.7327;-8903.988;-8462.256;-2487.8418;0.0;0.0;1838.2656
10.74;0.2151141;-0.29177696;442.08466;-8903.942;-8461.857;-2493.26;0.0;0.0;1838.2656
10.745;0.2152489;-0.29283887;442.42566;-8903.98;-8461.555;-2499.7983;0.0;0.0;1838.2656
10.75;0.21537913;-0.29428598;442.74313;-8904.602;-8461.858;-2508.4136;0.0;0.0;1838.2656
10.755;0.21550193;-0.2957151;443.03946;-8905.018;-8461.979;-2516.8877;0.0;0.0;1838.2656
10.76;0.21562181;-0.29716346;443.31757;-8905.344;-8462.026;-2525.4312;0.0;0.0;1838.2656
10.765;0.21573569;-0.2984606;443.577;-8905.494;-8461.917;-2533.1035;0.0;0.0;1838.2656
10.77;0.2158469;-0.3001819;443.8305;-8906.224;-8462.394;-2543.1033;0.0;0.0;1838.2656
10.775;0.21595804;-0.30181423;444.08484;-8906.889;-8462.804;-2552.6138;0.0;0.0;1838.2656
10.78;0.21606964;-0.3033735;444.3406;-8907.2295;-8462.889;-2561.7244;0.0;0.0;1838.2656
10.785;0.21618122;-0.30512604;444.5979;-8908.057;-8463.459;-2571.904;0.0;0.0;1838.2656
10.79;0.21629323;-0.30681828;444.84814;-8908.75;-8463.902;-2581.7368;0.0;0.0;1838.2656
10.795;0.21640071;-0.30843756;445.0817;-8909.34;-8464.258;-2591.134;0.0;0.0;1838.2656
10.8;0.21650405;-0.31009904;445.2909;-8910.057;-8464.766;-2600.715;0.0;0.0;1838.2656
10.805;0.2165993;-0.31173292;445.46317;-8910.796;-8465.333;-2610.07;0.0;0.0;1838.2656
10.81;0.21668433;-0.31312254;445.59073;-8911.329;-8465.738;-2617.9885;0.0;0.0;1838.2656
10.815;0.21675773;-0.31449974;445.66754;-8911.943;-8466.275;-2625.7373;0.0;0.0;1838.2656
10.82;0.21681835;-0.31538254;445.6892;-8912.033;-8466.344;-2630.6492;0.0;0.0;1838.2656
10.825;0.21686535;-0.31609803;445.65582;-8912.205;-8466.549;-2634.528;0.0;0.0;1838.2656
10.83;0.2169001;-0.31636065;445.5763;-8911.939;-8466.363;-2635.8174;0.0;0.0;1838.2656
10.835;0.21692622;-0.31619483;445.46912;-8911.338;-8465.869;-2634.6885;0.0;0.0;1838.2656
10.84;0.21694931;-0.31558374;445.35718;-8910.391;-8465.033;-2631.0945;0.0;0.0;1838.2656
10.845;0.21697518;-0.31468874;445.27545;-8909.313;-8464.038;-2625.9954;0.0;0.0;1838.2656
10.85;0.2170149;-0.3134487;445.25443;-8908.102;-8462.847;-2619.1147;0.0;0.0;1838.2656
10.855;0.21707198;-0.3120854;445.32147;-8906.801;-8461.4795;-2611.7305;0.0;0.0;1838.2656
10.86;0.2171553;-0.31053075;445.49432;-8905.383;-8459.889;-2603.5027;0.0;0.0;1838.2656
10.865;0.2172638;-0.30894396;445.76617;-8903.801;-8458.034;-2595.2954;0.0;0.0;1838.2656
10.87;0.21739413;-0.30750394;446.11932;-8902.348;-8456.229;-2588.0603;0.0;0.0;1838.2656
10.875;0.2175404;-0.3065092;446.52423;-8901.352;-8454.827;-2583.3845;0.0;0.0;1838.2656
10.88;0.21769392;-0.3058158;446.94745;-8900.697;-8453.75;-2580.4067;0.0;0.0;1838.2656
10.885;0.21784702;-0.30521324;447.3585;-8899.873;-8452.515;-2577.906;0.0;0.0;1838.2656
10.89;0.21799332;-0.30492064;447.73737;-8899.205;-8451.468;-2577.05;0.0;0.0;1838.2656
10.895;0.21813014;-0.3048093;448.08093;-8898.755;-8450.674;-2577.1233;0.0;0.0;1838.2656
10.9;0.21825944;-0.3049384;448.39746;-8898.449;-8450.052;-2578.4683;0.0;0.0;1838.2656
10.905;0.2183834;-0.3052859;448.7005;-8898.336;-8449.636;-2580.9907;0.0;0.0;1838.2656
10.91;0.2185064;-0.3057083;449.00317;-8898.305;-8449.302;-2583.9255;0.0;0.0;1838.2656
10.915;0.21863042;-0.3061359;449.31183;-8898.061;-8448.749;-2586.901;0.0;0.0;1838.2656
10.92;0.21875606;-0.30699262;449.6274;-8898.449;-8448.822;-2592.2566;0.0;0.0;1838.2656
10.925;0.21888314;-0.30777454;449.94574;-8898.397;-8448.452;-2597.2056;0.0;0.0;1838.2656
10.93;0.21900989;-0.30882588;450.26453;-8898.8545;-8448.59;-2603.641;0.0;0.0;1838.2656
10.935;0.21913695;-0.30988187;450.57907;-8899.106;-8448.527;-2610.0938;0.0;0.0;1838.2656
10.94;0.21926165;-0.31129867;450.88712;-8899.866;-8448.9795;-2618.5232;0.0;0.0;1838.2656
10.945;0.21938562;-0.3129548;451.19498;-8900.789;-8449.594;-2628.2722;0.0;0.0;1838.2656
10.95;0.21951033;-0.31439885;451.507;-8901.236;-8449.7295;-2636.8599;0.0;0.0;1838.2656
10.955;0.21963634;-0.31611535;451.82217;-8902.021;-8450.199;-2646.9563;0.0;0.0;1838.2656
10.96;0.21976238;-0.31792364;452.14056;-8902.85;-8450.709;-2657.5654;0.0;0.0;1838.2656
10.965;0.2198894;-0.31997883;452.45648;-8903.777;-8451.321;-2669.5312;0.0;0.0;1838.2656
10.97;0.22001374;-0.32228485;452.75958;-8904.9375;-8452.178;-2682.8545;0.0;0.0;1838.2656
10.975;0.22013383;-0.32450005;453.0406;-8906.033;-8452.992;-2695.633;0.0;0.0;1838.2656
10.98;0.22024707;-0.3269575;453.292;-8907.34;-8454.048;-2709.6882;0.0;0.0;1838.2656
10.985;0.22035222;-0.32935107;453.50443;-8908.399;-8454.895;-2723.313;0.0;0.0;1838.2656
10.99;0.22044615;-0.33203432;453.67206;-8910.014;-8456.342;-2738.446;0.0;0.0;1838.2656
10.995;0.22052933;-0.3342402;453.79205;-8910.918;-8457.126;-2750.851;0.0;0.0;1838.2656
11.0;0.22060014;-0.33662927;453.85614;-8912.26;-8458.403;-2764.1543;0.0;0.0;1838.2656
11.005;0.22065623;-0.3386017;453.85876;-8913.179;-8459.32;-2775.037;0.0;0.0;1838.2656
11.01;0.22069773;-0.34029382;453.8032;-8913.789;-8459.986;-2784.2578;0.0;0.0;1838.2656
11.015;0.22072612;-0.34144792;453.69318;-8913.863;-8460.17;-2790.4023;0.0;0.0;1838.2656
11.02;0.22074243;-0.342202;453.5406;-8913.757;-8460.216;-2794.2556;0.0;0.0;1838.2656
11.025;0.22075176;-0.34246844;453.3676;-8913.297;-8459.93;-2795.3792;0.0;0.0;1838.2656
11.03;0.22075988;-0.3422959;453.19388;-8912.525;-8459.331;-2794.0803;0.0;0.0;1838.2656
11.035;0.22077063;-0.34148303;453.04456;-8911.196;-8458.151;-2789.2986;0.0;0.0;1838.2656
11.04;0.22079225;-0.3403273;452.94403;-8909.651;-8456.707;-2782.724;0.0;0.0;1838.2656
11.045;0.2208281;-0.33878803;452.91003;-8907.852;-8454.941;-2774.1672;0.0;0.0;1838.2656
11.05;0.22088297;-0.33708414;452.9598;-8905.966;-8453.006;-2764.87;0.0;0.0;1838.2656
11.055;0.2209599;-0.33527437;453.0985;-8904.066;-8450.968;-2755.167;0.0;0.0;1838.2656
11.06;0.22105817;-0.33340305;453.3296;-8902.026;-8448.697;-2745.3093;0.0;0.0;1838.2656
11.065;0.22117963;-0.33170608;453.6513;-8900.248;-8446.597;-2736.5942;0.0;0.0;1838.2656
11.07;0.2213216;-0.3303015;454.0576;-8898.65;-8444.593;-2729.6606;0.0;0.0;1838.2656
11.075;0.2214831;-0.32928488;454.54156;-8897.428;-8442.886;-2725.0222;0.0;0.0;1838.2656
11.08;0.22166148;-0.32870966;455.08392;-8896.502;-8441.418;-2722.9348;0.0;0.0;1838.2656
11.085;0.22184956;-0.32859445;455.65723;-8896.029;-8440.372;-2723.446;0.0;0.0;1838.2656
11.09;0.22204114;-0.32888916;456.2403;-8895.604;-8439.363;-2726.2375;0.0;0.0;1838.2656
11.095;0.22223185;-0.3297272;456.80786;-8895.715;-8438.907;-2731.9944;0.0;0.0;1838.2656
11.1;0.22241431;-0.3309846;457.3349;-8896.012;-8438.677;-2739.9827;0.0;0.0;1838.2656
11.105;0.22258396;-0.33279032;457.80603;-8896.842;-8439.036;-2750.883;0.0;0.0;1838.2656
11.11;0.22273804;-0.3347801;458.20563;-8897.887;-8439.681;-2762.6555;0.0;0.0;1838.2656
11.115;0.22287254;-0.33709264;458.53113;-8899.088;-8440.557;-2776.0598;0.0;0.0;1838.2656
11.12;0.22299019;-0.33929887;458.78107;-8900.047;-8441.266;-2788.7266;0.0;0.0;1838.2656
11.125;0.22308822;-0.3413822;458.95786;-8900.859;-8441.901;-2800.5693;0.0;0.0;1838.2656
11.13;0.22317094;-0.34347197;459.07556;-8901.75;-8442.675;-2812.3293;0.0;0.0;1838.2656
11.135;0.2232412;-0.34534854;459.14746;-8902.484;-8443.337;-2822.822;0.0;0.0;1838.2656
11.14;0.22330281;-0.3471243;459.19458;-8903.184;-8443.989;-2832.7092;0.0;0.0;1838.2656
