time;temperature;pressure;kinetic_energy;potential_energy;total_energy;virial;msd;diffusion;volume
20.005;0.4007627;-0.16707852;823.4906;-8581.963;-7758.472;-2568.3853;0.0;0.0;1838.2656
20.01;0.40068537;-0.16682008;822.921;-8581.212;-7758.291;-2565.821;0.0;0.0;1838.2656
20.015;0.4005796;-0.16549297;822.24475;-8579.742;-7757.4976;-2557.1497;0.0;0.0;1838.2656
20.02;0.40045375;-0.16271809;821.4982;-8577.147;-7755.6494;-2540.3538;0.0;0.0;1838.2656
20.025;0.40031916;-0.15853304;820.7395;-8573.547;-7752.8076;-2515.7566;0.0;0.0;1838.2656
20.03;0.40019366;-0.15318774;820.04785;-8569.221;-7749.173;-2484.895;0.0;0.0;1838.2656
20.035;0.40009898;-0.14664312;819.52264;-8563.919;-7744.3965;-2447.7522;0.0;0.0;1838.2656
20.04;0.40006095;-0.13940388;819.25995;-8558.256;-7738.996;-2407.304;0.0;0.0;1838.2656
20.045;0.40009862;-0.13180305;819.32697;-8552.41;-7733.083;-2365.521;0.0;0.0;1838.2656
20.05;0.40022224;-0.12456087;819.73724;-8547.168;-7727.4307;-2326.4023;0.0;0.0;1838.2656
20.055;0.40042296;-0.11794696;820.42334;-8542.508;-7722.0845;-2291.3003;0.0;0.0;1838.2656
20.06;0.4006734;-0.11190411;821.26416;-8537.973;-7716.7085;-2259.6567;0.0;0.0;1838.2656
20.065;0.40094155;-0.106922686;822.1428;-8534.318;-7712.176;-2233.9426;0.0;0.0;1838.2656
20.07;0.4012057;-0.1029722;822.9967;-8531.568;-7708.572;-2213.8643;0.0;0.0;1838.2656
20.075;0.40146068;-0.09992551;823.8259;-8529.095;-7705.2686;-2198.7207;0.0;0.0;1838.2656
20.08;0.40171403;-0.097836785;824.6745;-8527.2295;-7702.555;-2188.899;0.0;0.0;1838.2656
20.085;0.40198088;-0.096802615;825.6025;-8525.961;-7700.3584;-2185.0518;0.0;0.0;1838.2656
20.09;0.4022745;-0.09721689;826.6598;-8525.73;-7699.071;-2189.451;0.0;0.0;1838.2656
20.095;0.40260372;-0.09898012;827.8638;-8526.451;-7698.5874;-2201.5828;0.0;0.0;1838.2656
20.1;0.40296537;-0.10225323;829.1825;-8528.114;-7698.9316;-2222.2708;0.0;0.0;1838.2656
20.105;0.40334392;-0.10750162;830.53613;-8531.42;-7700.884;-2253.9219;0.0;0.0;1838.2656
20.11;0.40371403;-0.114034705;831.8087;-8535.447;-7703.6387;-2292.4956;0.0;0.0;1838.2656
20.115;0.4040444;-0.122030295;832.87067;-8540.57;-7707.6997;-2338.7136;0.0;0.0;1838.2656
20.12;0.40430447;-0.13072135;833.61414;-8545.988;-7712.374;-2388.13;0.0;0.0;1838.2656
20.125;0.40447566;-0.14000799;833.9758;-8551.82;-7717.8447;-2440.0674;0.0;0.0;1838.2656
20.13;0.4045489;-0.14870639;833.93933;-8556.848;-7722.908;-2487.964;0.0;0.0;1838.2656
20.135;0.40452915;-0.15692417;833.54236;-8561.538;-7727.9956;-2532.4897;0.0;0.0;1838.2656
20.14;0.40443212;-0.16419995;832.8614;-8565.697;-7732.836;-2571.2522;0.0;0.0;1838.2656
20.145;0.40428075;-0.1699434;831.9935;-8568.526;-7736.5327;-2601.1904;0.0;0.0;1838.2656
20.15;0.4040999;-0.17403406;831.0386;-8570.283;-7739.2446;-2621.8396;0.0;0.0;1838.2656
20.155;0.40391293;-0.17617217;830.0888;-8570.376;-7740.287;-2631.7314;0.0;0.0;1838.2656
20.16;0.40374053;-0.17695254;829.2179;-8569.734;-7740.5166;-2634.2932;0.0;0.0;1838.2656
20.165;0.4035969;-0.17605862;828.48364;-8567.975;-7739.491;-2627.8948;0.0;0.0;1838.2656
20.17;0.40349534;-0.17398034;827.93054;-8565.557;-7737.626;-2615.3274;0.0;0.0;1838.2656
20.175;0.40344268;-0.17100431;827.58246;-8562.691;-7735.109;-2598.219;0.0;0.0;1838.2656
20.18;0.40344298;-0.16735065;827.4574;-8559.551;-7732.0933;-2577.8196;0.0;0.0;1838.2656
20.185;0.40349936;-0.16332811;827.55597;-8556.389;-7728.8325;-2555.8333;0.0;0.0;1838.2656
20.19;0.40360808;-0.15925242;827.85596;-8553.288;-7725.432;-2533.9568;0.0;0.0;1838.2656
20.195;0.40376022;-0.15535443;828.3189;-8550.565;-7722.2466;-2513.386;0.0;0.0;1838.2656
20.2;0.40394565;-0.15166965;828.9081;-8547.887;-7718.9785;-2494.2434;0.0;0.0;1838.2656
20.205;0.40415528;-0.14864355;829.57166;-8545.978;-7716.406;-2478.8823;0.0;0.0;1838.2656
20.21;0.40437278;-0.14617254;830.25183;-8544.506;-7714.254;-2466.6155;0.0;0.0;1838.2656
20.215;0.4045872;-0.14406835;830.91;-8543.117;-7712.207;-2456.3276;0.0;0.0;1838.2656
20.22;0.40479162;-0.14268684;831.51965;-8542.438;-7710.919;-2449.9282;0.0;0.0;1838.2656
20.225;0.40498143;-0.14183612;832.06616;-8542.179;-7710.1123;-2446.3296;0.0;0.0;1838.2656
20.23;0.40515485;-0.14141278;832.5526;-8542.189;-7709.6367;-2444.968;0.0;0.0;1838.2656
20.235;0.40531528;-0.14117904;832.98175;-8542.15;-7709.1685;-2444.537;0.0;0.0;1838.2656
20.24;0.40546057;-0.14118718;833.3397;-8542.301;-7708.961;-2445.298;0.0;0.0;1838.2656
20.245;0.40558615;-0.1414644;833.61304;-8542.631;-7709.0176;-2447.3735;0.0;0.0;1838.2656
20.25;0.40569025;-0.14172927;833.7949;-8542.855;-7709.0605;-2449.198;0.0;0.0;1838.2656
20.255;0.40577248;-0.14191096;833.89905;-8542.974;-7709.0747;-2450.4082;0.0;0.0;1838.2656
20.26;0.4058411;-0.14204636;833.97345;-8543.025;-7709.052;-2451.3037;0.0;0.0;1838.2656
20.265;0.4059117;-0.14211984;834.0856;-8543.053;-7708.9673;-2451.933;0.0;0.0;1838.2656
20.27;0.40600204;-0.14204869;834.30475;-8542.836;-7708.5312;-2451.979;0.0;0.0;1838.2656
20.275;0.4061264;-0.14215061;834.67676;-8542.82;-7708.1436;-2453.2852;0.0;0.0;1838.2656
20.28;0.40629074;-0.14281352;835.21436;-8543.445;-7708.231;-2458.0164;0.0;0.0;1838.2656
20.285;0.40649232;-0.14381357;835.87195;-8544.227;-7708.3545;-2464.8464;0.0;0.0;1838.2656
20.29;0.40670934;-0.14540663;836.55176;-8545.427;-7708.875;-2474.9915;0.0;0.0;1838.2656
20.295;0.40691522;-0.14763328;837.1444;-8547.356;-7710.212;-2488.4563;0.0;0.0;1838.2656
20.3;0.4070851;-0.14999737;837.553;-8549.135;-7711.582;-2502.311;0.0;0.0;1838.2656
20.305;0.4071994;-0.15245065;837.7373;-8551.1455;-7713.408;-2516.209;0.0;0.0;1838.2656
20.31;0.40726176;-0.15473925;837.7147;-8552.998;-7715.283;-2528.785;0.0;0.0;1838.2656
20.315;0.40727904;-0.15634587;837.5378;-8554.115;-7716.5776;-2537.2913;0.0;0.0;1838.2656
20.32;0.407271;-0.15727186;837.2811;-8554.698;-7717.417;-2541.8845;0.0;0.0;1838.2656
20.325;0.40725353;-0.15766189;837.0034;-8555.044;-7718.0405;-2543.4802;0.0;0.0;1838.2656
20.33;0.4072374;-0.15737888;836.7382;-8554.771;-7718.033;-2541.389;0.0;0.0;1838.2656
20.335;0.40722662;-0.15673918;836.4847;-8554.501;-7718.016;-2537.354;0.0;0.0;1838.2656
20.34;0.40721667;-0.15520394;836.2354;-8553.358;-7717.123;-2528.389;0.0;0.0;1838.2656
20.345;0.40720963;-0.15335053;836.00275;-8552.072;-7716.0693;-2517.7026;0.0;0.0;1838.2656
20.35;0.40721008;-0.15103859;835.8301;-8550.428;-7714.5977;-2504.6072;0.0;0.0;1838.2656
20.355;0.40723592;-0.14847866;835.792;-8548.632;-7712.84;-2490.4136;0.0;0.0;1838.2656
20.36;0.40730533;-0.1457093;835.95337;-8546.613;-7710.66;-2475.4639;0.0;0.0;1838.2656
20.365;0.40743092;-0.14331126;836.37085;-8544.895;-7708.5234;-2463.0742;0.0;0.0;1838.2656
20.37;0.4076247;-0.14161758;837.06696;-8543.867;-7706.8003;-2455.1262;0.0;0.0;1838.2656
20.375;0.40788266;-0.14065152;838.00525;-8543.074;-7705.069;-2451.675;0.0;0.0;1838.2656
20.38;0.40818772;-0.14080976;839.08777;-8543.1045;-7704.0166;-2454.713;0.0;0.0;1838.2656
20.385;0.4085067;-0.14212236;840.1732;-8543.902;-7703.729;-2464.1223;0.0;0.0;1838.2656
20.39;0.40880322;-0.14456524;841.1018;-8545.62;-7704.5186;-2479.4514;0.0;0.0;1838.2656
20.395;0.40903744;-0.14762859;841.7224;-8547.73;-7706.008;-2497.5864;0.0;0.0;1838.2656
20.4;0.4091791;-0.15103883;841.9299;-8549.941;-7708.0117;-2516.808;0.0;0.0;1838.2656
20.405;0.40921137;-0.15396105;841.69275;-8551.774;-7710.0815;-2532.4495;0.0;0.0;1838.2656
20.41;0.40914112;-0.15598343;841.0647;-8552.815;-7711.751;-2542.3464;0.0;0.0;1838.2656
20.415;0.40899152;-0.15667653;840.1608;-8552.809;-7712.648;-2544.3608;0.0;0.0;1838.2656
20.42;0.40879747;-0.15573238;839.14233;-8551.561;-7712.418;-2537.1172;0.0;0.0;1838.2656
20.425;0.40860358;-0.15330458;838.188;-8549.302;-7711.114;-2521.8196;0.0;0.0;1838.2656
20.43;0.4084502;-0.14932737;837.44586;-8545.754;-7708.308;-2498.4019;0.0;0.0;1838.2656
20.435;0.4083661;-0.14433406;837.01404;-8541.595;-7704.5806;-2470.0012;0.0;0.0;1838.2656
20.44;0.40836576;-0.13868752;836.9165;-8537.135;-7700.2183;-2438.6665;0.0;0.0;1838.2656
20.445;0.40844214;-0.1328997;837.11084;-8532.706;-7695.595;-2407.1365;0.0;0.0;1838.2656
20.45;0.40857947;-0.12724334;837.5187;-8528.611;-7691.093;-2376.7585;0.0;0.0;1838.2656
20.455;0.40875491;-0.121697605;838.0585;-8524.497;-7686.4385;-2347.2544;0.0;0.0;1838.2656
20.46;0.40895218;-0.116780244;838.6719;-8520.789;-7682.117;-2321.363;0.0;0.0;1838.2656
20.465;0.40916064;-0.11234699;839.3269;-8517.715;-7678.3877;-2298.2246;0.0;0.0;1838.2656
20.47;0.40937725;-0.108516715;840.0217;-8515.048;-7675.0264;-2278.4912;0.0;0.0;1838.2656
20.475;0.409604;-0.10541827;840.76215;-8512.998;-7672.236;-2262.8848;0.0;0.0;1838.2656
20.48;0.40984237;-0.10326658;841.5574;-8511.781;-7670.2236;-2252.609;0.0;0.0;1838.2656
20.485;0.41009483;-0.10201001;842.4136;-8511.29;-7668.8765;-2247.3916;0.0;0.0;1838.2656
20.49;0.41036066;-0.10153608;843.3214;-8511.15;-7667.829;-2246.5938;0.0;0.0;1838.2656
20.495;0.4106351;-0.102080695;844.2446;-8511.916;-7667.6714;-2251.4436;0.0;0.0;1838.2656
20.5;0.4109045;-0.10350835;845.13257;-8513.271;-7668.1387;-2261.0928;0.0;0.0;1838.2656
20.505;0.41115737;-0.105885565;845.92847;-8515.361;-7669.4326;-2275.7942;0.0;0.0;1838.2656
20.51;0.4113776;-0.10861442;846.56775;-8517.567;-7670.9995;-2292.122;0.0;0.0;1838.2656
20.515;0.41155168;-0.112016045;847.0115;-8520.452;-7673.4404;-2311.7686;0.0;0.0;1838.2656
20.52;0.41167584;-0.11536956;847.25195;-8523.073;-7675.8213;-2330.7437;0.0;0.0;1838.2656
20.525;0.41175213;-0.11845177;847.3039;-8525.523;-7678.2197;-2347.8452;0.0;0.0;1838.2656
20.53;0.41178796;-0.121244885;847.21735;-8527.673;-7680.4556;-2363.0757;0.0;0.0;1838.2656
20.535;0.4118007;-0.12366997;847.0614;-8529.713;-7682.6514;-2376.1375;0.0;0.0;1838.2656
20.54;0.41180715;-0.12538232;846.90247;-8531.025;-7684.123;-2385.263;0.0;0.0;1838.2656
20.545;0.41182235;-0.12668176;846.79724;-8532.288;-7685.4907;-2392.2185;0.0;0.0;1838.2656
20.55;0.41185793;-0.12745218;846.7877;-8532.949;-7686.1616;-2396.4482;0.0;0.0;1838.2656
20.555;0.41192165;-0.128224;846.8983;-8534.079;-7687.1807;-2400.926;0.0;0.0;1838.2656
20.56;0.41201645;-0.12868927;847.14233;-8534.638;-7687.495;-2403.98;0.0;0.0;1838.2656
20.565;0.41214496;-0.12946548;847.51764;-8535.889;-7688.371;-2409.011;0.0;0.0;1838.2656
20.57;0.41230297;-0.13059628;848.01215;-8537.561;-7689.5483;-2416.2363;0.0;0.0;1838.2656
20.575;0.41248754;-0.13183759;848.6015;-8539.166;-7690.5645;-2424.2605;0.0;0.0;1838.2656
20.58;0.41268864;-0.13371126;849.23846;-8541.546;-7692.3076;-2435.8674;0.0;0.0;1838.2656
20.585;0.4128918;-0.13597104;849.8492;-8544.2;-7694.351;-2449.551;0.0;0.0;1838.2656
20.59;0.41307506;-0.13866058;850.3421;-8547.337;-7696.9946;-2465.3691;0.0;0.0;1838.2656
20.595;0.4132162;-0.1411093;850.6365;-8549.941;-7699.3047;-2479.4622;0.0;0.0;1838.2656
20.6;0.4133003;-0.14336367;850.6806;-8552.424;-7701.743;-2491.9827;0.0;0.0;1838.2656
20.605;0.41332048;-0.14517464;850.4706;-8554.682;-7704.211;-2501.5498;0.0;0.0;1838.2656
20.61;0.4132847;-0.14624698;850.0599;-8556.6;-7706.5396;-2506.642;0.0;0.0;1838.2656
20.615;0.41321355;-0.14624289;849.5425;-8557.473;-7707.93;-2505.5847;0.0;0.0;1838.2656
20.62;0.41313317;-0.1453734;849.028;-8557.989;-7708.9614;-2499.7607;0.0;0.0;1838.2656
20.625;0.41307014;-0.14347933;848.6234;-8557.832;-7709.2085;-2488.506;0.0;0.0;1838.2656
20.63;0.4130475;-0.1411801;848.3925;-8557.637;-7709.244;-2475.3645;0.0;0.0;1838.2656
20.635;0.41306922;-0.13815954;848.327;-8556.832;-7708.505;-2458.576;0.0;0.0;1838.2656
20.64;0.4131243;-0.13466462;848.3626;-8555.5;-7707.137;-2439.3733;0.0;0.0;1838.2656
20.645;0.41319123;-0.13097471;848.4232;-8553.982;-7705.559;-2419.1453;0.0;0.0;1838.2656
20.65;0.4132557;-0.12734325;848.4597;-8552.898;-7704.4385;-2399.1917;0.0;0.0;1838.2656
20.655;0.41331136;-0.12333516;848.4755;-8551.295;-7702.8193;-2377.1194;0.0;0.0;1838.2656
20.66;0.41336772;-0.11912213;848.5072;-8549.341;-7700.8335;-2353.9487;0.0;0.0;1838.2656
20.665;0.4134333;-0.114613205;848.5923;-8547.021;-7698.429;-2329.2532;0.0;0.0;1838.2656
20.67;0.4135176;-0.11016722;848.7582;-8544.586;-7695.8276;-2305.0662;0.0;0.0;1838.2656
20.675;0.41362315;-0.10591729;849.0135;-8542.288;-7693.2744;-2282.1394;0.0;0.0;1838.2656
20.68;0.41375124;-0.102194324;849.3683;-8540.466;-7691.0977;-2262.3176;0.0;0.0;1838.2656
20.685;0.41390496;-0.0985503;849.82654;-8538.494;-7688.6675;-2243.138;0.0;0.0;1838.2656
20.69;0.414083;-0.09556219;850.38385;-8536.993;-7686.6094;-2227.7737;0.0;0.0;1838.2656
20.695;0.4142835;-0.093639545;851.03314;-8536.661;-7685.628;-2218.4692;0.0;0.0;1838.2656
20.7;0.4145035;-0.09222311;851.7432;-8536.532;-7684.789;-2212.0781;0.0;0.0;1838.2656
20.705;0.4147297;-0.091553085;852.4538;-8536.969;-7684.515;-2209.8042;0.0;0.0;1838.2656
20.71;0.41494468;-0.091387436;853.0867;-8537.627;-7684.54;-2210.1565;0.0;0.0;1838.2656
20.715;0.41512847;-0.091494344;853.5588;-8538.348;-7684.789;-2211.6902;0.0;0.0;1838.2656
20.72;0.415262;-0.091814645;853.81104;-8539.291;-7685.48;-2213.9612;0.0;0.0;1838.2656
20.725;0.41533864;-0.09202336;853.8413;-8540.484;-7686.643;-2215.1726;0.0;0.0;1838.2656
20.73;0.41536653;-0.09167109;853.6947;-8541.002;-7687.307;-2212.9368;0.0;0.0;1838.2656
20.735;0.41536036;-0.090391494;853.4196;-8540.707;-7687.2876;-2205.3298;0.0;0.0;1838.2656
20.74;0.41532913;-0.08843713;853.06573;-8540.186;-7687.1196;-2193.8442;0.0;0.0;1838.2656
20.745;0.41528758;-0.08564603;852.6771;-8539.216;-7686.5386;-2177.6748;0.0;0.0;1838.2656
20.75;0.41524217;-0.08200062;852.28125;-8537.838;-7685.5566;-2156.7793;0.0;0.0;1838.2656
20.755;0.4152001;-0.07730038;851.91846;-8535.534;-7683.6157;-2130.1328;0.0;0.0;1838.2656
20.76;0.41517472;-0.07164579;851.63025;-8532.603;-7680.972;-2098.3726;0.0;0.0;1838.2656
20.765;0.41517234;-0.06554665;851.4588;-8529.59;-7678.131;-2064.394;0.0;0.0;1838.2656
20.77;0.41520634;-0.05886698;851.43024;-8526.164;-7674.734;-2027.4999;0.0;0.0;1838.2656
20.775;0.41527495;-0.051953435;851.5466;-8522.656;-7671.11;-1989.6058;0.0;0.0;1838.2656
20.78;0.415379;-0.04500297;851.79694;-8519.3125;-7667.5156;-1951.7761;0.0;0.0;1838.2656
20.785;0.4155111;-0.038052797;852.143;-8515.807;-7663.6636;-1914.1394;0.0;0.0;1838.2656
20.79;0.41565844;-0.031273276;852.5223;-8512.486;-7659.964;-1877.5103;0.0;0.0;1838.2656
20.795;0.41580358;-0.024689155;852.8777;-8509.3125;-7656.4346;-1841.911;0.0;0.0;1838.2656
20.8;0.41593647;-0.018441526;853.17126;-8506.32;-7653.149;-1808.0438;0.0;0.0;1838.2656
20.805;0.4160508;-0.012398035;853.39734;-8503.528;-7650.131;-1775.1674;0.0;0.0;1838.2656
20.81;0.4161526;-0.0064512887;853.59216;-8500.568;-7646.976;-1742.7618;0.0;0.0;1838.2656
20.815;0.41625515;-0.0007807989;853.834;-8497.712;-7643.878;-1711.9739;0.0;0.0;1838.2656
20.82;0.4163838;0.004705491;854.21436;-8494.834;-7640.6196;-1682.4789;0.0;0.0;1838.2656
20.825;0.41655722;0.009378559;854.8031;-8492.51;-7637.7065;-1657.8854;0.0;0.0;1838.2656
20.83;0.41678777;0.013200045;855.62976;-8490.696;-7635.0664;-1638.464;0.0;0.0;1838.2656
20.835;0.41707492;0.01564372;856.6814;-8489.789;-7633.1074;-1627.0908;0.0;0.0;1838.2656
20.84;0.41741014;0.016698921;857.9125;-8489.69;-7631.778;-1623.7338;0.0;0.0;1838.2656
20.845;0.41777882;0.016160248;859.25134;-8490.615;-7631.364;-1629.3822;0.0;0.0;1838.2656
20.85;0.41815934;0.013520866;860.61426;-8493.261;-7632.6465;-1646.6637;0.0;0.0;1838.2656
20.855;0.41853285;0.009352148;861.9225;-8496.782;-7634.86;-1672.2698;0.0;0.0;1838.2656
20.86;0.41887984;0.0036423572;863.08826;-8501.221;-7638.1323;-1706.0896;0.0;0.0;1838.2656
20.865;0.4191779;-0.0032820033;864.0292;-8506.357;-7642.328;-1746.158;0.0;0.0;1838.2656
20.87;0.4194116;-0.011087378;864.6831;-8512.016;-7647.3325;-1790.5109;0.0;0.0;1838.2656
20.875;0.41956896;-0.019372795;865.0294;-8517.874;-7652.8447;-1836.8959;0.0;0.0;1838.2656
20.88;0.41965485;-0.02764987;865.0935;-8523.607;-7658.5137;-1882.6704;0.0;0.0;1838.2656
20.885;0.41968;-0.035658676;864.94904;-8529.125;-7664.176;-1926.5485;0.0;0.0;1838.2656
20.89;0.41966996;-0.043052983;864.6908;-8534.17;-7669.479;-1966.81;0.0;0.0;1838.2656
20.895;0.41964442;-0.04981138;864.38696;-8538.777;-7674.3906;-2003.4736;0.0;0.0;1838.2656
20.9;0.41961432;-0.05562682;864.0552;-8542.551;-7678.4956;-2034.881;0.0;0.0;1838.2656
20.905;0.41957453;-0.060491648;863.66956;-8545.732;-7682.063;-2060.9382;0.0;0.0;1838.2656
20.91;0.41951764;-0.064417936;863.2026;-8548.215;-7685.012;-2081.657;0.0;0.0;1838.2656
20.915;0.4194388;-0.06723747;862.656;-8550.066;-7687.41;-2096.113;0.0;0.0;1838.2656
20.92;0.41934648;-0.06903002;862.05975;-8551.397;-7689.338;-2104.806;0.0;0.0;1838.2656
20.925;0.41924772;-0.069450565;861.45233;-8551.593;-7690.1406;-2105.9104;0.0;0.0;1838.2656
20.93;0.4191541;-0.06868464;860.885;-8550.993;-7690.1084;-2100.5518;0.0;0.0;1838.2656
20.935;0.41907883;-0.06679582;860.39087;-8549.525;-7689.135;-2089.1472;0.0;0.0;1838.2656
20.94;0.41902366;-0.06413749;859.98486;-8547.723;-7687.738;-2073.675;0.0;0.0;1838.2656
20.945;0.41899386;-0.060526337;859.67944;-8545.108;-7685.4287;-2053.1494;0.0;0.0;1838.2656
20.95;0.4189901;-0.056402177;859.4823;-8542.303;-7682.8203;-2030.0111;0.0;0.0;1838.2656
20.955;0.41901547;-0.05174035;859.419;-8539.017;-7679.5977;-2004.1755;0.0;0.0;1838.2656
20.96;0.41908008;-0.04704948;859.53845;-8535.755;-7676.2163;-1978.5453;0.0;0.0;1838.2656
20.965;0.41919708;-0.042287394;859.8973;-8532.475;-7672.577;-1953.001;0.0;0.0;1838.2656
20.97;0.41937977;-0.03826954;860.5399;-8529.879;-7669.339;-1932.1285;0.0;0.0;1838.2656
20.975;0.41963217;-0.035083722;861.44714;-8527.999;-7666.552;-1916.3739;0.0;0.0;1838.2656
20.98;0.41993672;-0.0328712;862.5283;-8526.813;-7664.285;-1906.3346;0.0;0.0;1838.2656
20.985;0.42026305;-0.03202526;863.6351;-8526.66;-7663.025;-1903.8829;0.0;0.0;1838.2656
20.99;0.42056885;-0.032280285;864.6061;-8527.605;-7662.9995;-1907.2313;0.0;0.0;1838.2656
20.995;0.4208216;-0.03331255;865.3356;-8528.859;-7663.524;-1914.383;0.0;0.0;1838.2656
21.0;0.4210057;-0.03503784;865.782;-8530.947;-7665.165;-1924.7905;0.0;0.0;1838.2656
21.005;0.42112118;-0.036544755;865.96545;-8532.463;-7666.4976;-1933.4678;0.0;0.0;1838.2656
21.01;0.4211799;-0.03752161;865.94324;-8533.328;-7667.385;-1938.8105;0.0;0.0;1838.2656
21.015;0.4211996;-0.038216095;865.78015;-8534.071;-7668.291;-1942.3143;0.0;0.0;1838.2656
21.02;0.4211942;-0.03828309;865.5415;-8534.414;-7668.8726;-1942.2065;0.0;0.0;1838.2656
21.025;0.42118156;-0.0376547;865.29236;-8534.371;-7669.0786;-1938.2428;0.0;0.0;1838.2656
21.03;0.42117524;-0.036564853;865.0827;-8534.172;-7669.0894;-1931.8131;0.0;0.0;1838.2656
21.035;0.42118436;-0.034682725;864.94116;-8533.218;-7668.2764;-1921.1505;0.0;0.0;1838.2656
21.04;0.42121276;-0.032492463;864.8768;-8532.1455;-7667.2686;-1908.9429;0.0;0.0;1838.2656
21.045;0.42126006;-0.029926168;864.8953;-8531.053;-7666.157;-1894.8274;0.0;0.0;1838.2656
21.05;0.42132953;-0.027143272;864.99817;-8529.872;-7664.874;-1879.6859;0.0;0.0;1838.2656
21.055;0.42141828;-0.024247842;865.1847;-8528.639;-7663.454;-1864.0913;0.0;0.0;1838.2656
21.06;0.4215289;-0.021242037;865.46704;-8527.217;-7661.75;-1848.0796;0.0;0.0;1838.2656
21.065;0.42166477;-0.018528089;865.85876;-8526.025;-7660.1665;-1833.8961;0.0;0.0;1838.2656
21.07;0.42182824;-0.015982324;866.3651;-8525.025;-7658.66;-1820.8695;0.0;0.0;1838.2656
21.075;0.42201895;-0.01410322;866.9764;-8524.685;-7657.708;-1811.7291;0.0;0.0;1838.2656
21.08;0.42223018;-0.012725043;867.6449;-8524.578;-7656.933;-1805.4658;0.0;0.0;1838.2656
21.085;0.4224439;-0.011912687;868.2843;-8524.914;-7656.63;-1802.2646;0.0;0.0;1838.2656
21.09;0.42263463;-0.011570367;868.79346;-8525.55;-7656.7563;-1801.3951;0.0;0.0;1838.2656
21.095;0.42278016;-0.011388712;869.08923;-8526.156;-7657.067;-1800.9849;0.0;0.0;1838.2656
21.1;0.4228654;-0.011355687;869.13806;-8527.159;-7658.021;-1800.9004;0.0;0.0;1838.2656
21.105;0.4228931;-0.010789044;868.98694;-8527.281;-7658.2944;-1797.4733;0.0;0.0;1838.2656
21.11;0.42288736;-0.009757374;868.75146;-8526.891;-7658.139;-1791.3129;0.0;0.0;1838.2656
21.115;0.4228813;-0.008122936;868.571;-8526.187;-7657.6157;-1781.9384;0.0;0.0;1838.2656
21.12;0.4229095;-0.0064921435;868.5719;-8525.539;-7656.9673;-1772.9467;0.0;0.0;1838.2656
21.125;0.42299452;-0.0047244644;868.8187;-8524.76;-7655.941;-1763.6919;0.0;0.0;1838.2656
21.13;0.42314148;-0.0030530603;869.2928;-8523.967;-7654.674;-1755.4226;0.0;0.0;1838.2656
