temperature;pressure;kinetic_energy;potential_energy;total_energy
9.999999999999996e-11;-5.878527343253825;2.0579999999999995e-07;-7985.806481980159;-7985.80648177436
0.00010000003478529277;-5.878395090911371;0.20580007158813254;-7985.07855460692;-7984.872754535332
0.0001999472282113169;-5.87831640016622;0.4114913956588902;-7985.081989083314;-7984.6704976876545
0.0002997798522256153;-5.878238143110858;0.6169469358803162;-7985.078766780915;-7984.461819845035
0.0003995115389868724;-5.878147298012173;0.8221947472349834;-7985.085200461064;-7984.263005713829
0.0004991429894074444;-5.878051841422651;1.0272362722005206;-7985.079952247385;-7984.052715975185
0.0005986757911921278;-5.877946150338645;1.232074778273399;-7985.069677034368;-7983.837602256095
0.0006981100657338166;-5.877825254203991;1.4367105152801944;-7985.06002731083;-7983.62331679555
0.0007974452818467998;-5.877697314245979;1.641142390040714;-7985.067190930249;-7983.426048540208
0.0008966820716234041;-5.877550033358738;1.8453717034009656;-7985.057585956627;-7983.212214253226
0.0009958206185488635;-5.877386707173097;2.0493988329735613;-7985.044127549006;-7982.994728716032
0.0010948615830101783;-5.877206917845487;2.253225137834947;-7985.026492692743;-7982.773267554908
0.0011938060126249071;-5.877006128438789;2.456852773982059;-7985.022225301201;-7982.565372527219
0.0012926529315826923;-5.8767840856349025;2.660279733197181;-7985.0106394496;-7982.350359716403
0.0013914021814345045;-5.8765342590033285;2.86350568939221;-7984.992885117164;-7982.129379427773
0.0014900554459866073;-5.876258804903217;3.066534107840438;-7984.955267474948;-7981.888733367108
0.0015886134224300345;-5.875958699830747;3.269366423361011;-7984.91972982163;-7981.650363398269
0.001687074946592796;-5.875628847994944;3.472000240087974;-7984.904573174764;-7981.432572934676
0.0017854399507764424;-5.875266751414101;3.6744354186979185;-7984.86512138186;-7981.190685963163
0.0018837112009939807;-5.874875267951124;3.8766776516456125;-7984.840765454423;-7980.964087802777
0.001981886719757335;-5.874448025992998;4.078722869260595;-7984.8002187284;-7980.721495859139
0.0020799656101745407;-5.873983764951278;4.280569225739205;-7984.759388847147;-7980.478819621409
0.0021779522229278666;-5.873483289905405;4.48222567478555;-7984.707690160403;-7980.2254644856175
0.0022758452941788326;-5.872940189840394;4.683689615420038;-7984.649107558207;-7979.965417942787
0.0023736425989399857;-5.872361105130584;4.8849564686184905;-7984.598742266512;-7979.713785797893
0.002471347136935624;-5.8717340962157305;5.086032407813514;-7984.528948598167;-7979.442916190353
0.0025689601527198827;-5.871066783390097;5.286919994297518;-7984.462734917076;-7979.175814922778
0.0026664794349253052;-5.870349766152898;5.487614677076278;-7984.386100712133;-7978.8984860350565
0.002763905603260989;-5.869589389768999;5.688117731511115;-7984.314226431879;-7978.626108700369
0.002861240579859987;-5.868689435866853;5.888433113351853;-7984.154556622911;-7978.266123509558
0.002958546851407342;-5.867774777481646;6.088689420196309;-7984.0092836933745;-7977.920594273178
0.003055799560699733;-5.8667899088488635;6.28883549592005;-7983.8470632342805;-7977.55822773836
0.0031529479884685697;-5.8656963709840335;6.4887669602683165;-7983.637870041441;-7977.149103081172
0.003250049363203715;-5.864601578061224;6.688601589473246;-7983.464605558775;-7976.776003969301
0.0033470593737511796;-5.863294340040087;6.888248191179928;-7983.138303016038;-7976.250054824858
0.003444044349588202;-5.861978941922944;7.0878432714525195;-7982.858534757906;-7975.770691486454
0.003541008481517007;-5.8605494930272;7.287395454962001;-7982.516477170223;-7975.229081715261
0.0036378804702250633;-5.85895337023739;7.48675800772318;-7982.08005337195;-7974.593295364227
0.0037347528725958953;-5.857312255188812;7.686121411802352;-7981.631761385413;-7973.94563997361
0.0038315902975100367;-5.855556603909668;7.885412832275655;-7981.165552155851;-7973.280139323576
0.003928355813113435;-5.853663507714197;8.084556263387448;-7980.609544659654;-7972.524988396266
0.004025102452642365;-5.851560889878889;8.283660847537988;-7979.905594692929;-7971.621933845391
0.004121880102548922;-5.849465205547034;8.48282925104568;-7979.278508695135;-7970.79567944409
0.004218606780878021;-5.84718954864604;8.681892755046967;-7978.528653749831;-7969.846760994785
0.0043152699057921904;-5.844666739439808;8.880825466120328;-7977.6222117039415;-7968.741386237821
0.0044119960484547615;-5.842095558591971;9.079887867719899;-7976.711306006664;-7967.631418138944
0.004508722977765793;-5.839629432875381;9.278951888242002;-7975.963616640131;-7966.684664751889
0.00460529858514599;-5.8369971287704265;9.477704488230447;-7975.133924099826;-7965.656219611596
0.004701765962922119;-5.834163527523477;9.67623435169372;-7974.183975912735;-7964.507741561041
0.00479826381543187;-5.831133242437478;9.874826932158788;-7973.1016831099405;-7963.226856177782
0.004894811016046051;-5.827990968398448;10.073521071022775;-7971.979019399494;-7961.905498328471
0.00499137857256087;-5.82519525865073;10.27225710233027;-7971.2474005460235;-7960.975143443693
0.005087763110136914;-5.821710701670941;10.470616480661768;-7969.946266200921;-7959.475649720259
0.005184180508437159;-5.818244427416992;10.669043486363673;-7968.722590114481;-7958.053546628117
0.005280776791230424;-5.814919767113976;10.867838636352213;-7967.692777645036;-7956.824939008683
0.005377243452864644;-5.811400425871318;11.066367025995437;-7966.561889591903;-7955.495522565908
0.005473668677467838;-5.8076856599575795;11.26481013822881;-7965.304724302975;-7954.039914164746
0.005570203783728043;-5.804216699989836;11.463479386912311;-7964.339391300321;-7952.875911913408
0.005666687033167972;-5.800233492376974;11.662041914259685;-7962.981369914702;-7951.319328000442
0.005763229913042976;-5.796632318265031;11.860727161042444;-7962.025769471155;-7950.165042310113
0.005859817426506746;-5.792960763805801;12.059504263750885;-7961.090849894768;-7949.031345631018
0.005956309124269976;-5.788889763363041;12.25808417774761;-7959.8312934600535;-7947.5732092823055
0.006052987809182342;-5.7849269848911336;12.45704891129726;-7958.75522111792;-7946.298172206622
0.006149807497791267;-5.7808408077584055;12.656303830454426;-7957.631274836509;-7944.974971006054
0.006246693316427323;-5.776899068324459;12.85569484520743;-7956.694393341174;-7943.838698495966
0.006343663520991867;-5.77265630155129;13.055259526201263;-7955.551524432572;-7942.49626490637
0.006440796265461747;-5.768473243802828;13.255158714320274;-7954.530581926223;-7941.275423211902
0.006538134684934582;-5.764086608171817;13.455481181595369;-7953.374702501611;-7939.919221320016
0.00663567603886538;-5.759682091328971;13.65622128798495;-7952.2763699187235;-7938.620148630738
0.006733476156374664;-5.75531462808666;13.857493929819057;-7951.253084067823;-7937.395590138004
0.006831473742888198;-5.750842048152519;14.059172962863911;-7950.217871460131;-7936.158698497267
0.006929707409079149;-5.74637677944608;14.261337847884889;-7949.245241033588;-7934.983903185704
0.007028204235657661;-5.741898456247113;14.464044316983465;-7948.3070752377425;-7933.843030920759
0.0071269708916475594;-5.737304938170166;14.667306095010677;-7947.314632789497;-7932.647326694487
0.007226091023049725;-5.732535946051919;14.871295325436336;-7946.211938341392;-7931.340643015956
0.007325637467863326;-5.727774044032472;15.076161908862725;-7945.173501293724;-7930.097339384862
0.007425581355095994;-5.722892545722572;15.281846428787555;-7944.0659164780745;-7928.784070049287
0.007525908044136542;-5.71827963501733;15.488318754833003;-7943.256971483496;-7927.768652728663
0.0076265356300630055;-5.713699763873075;15.695410326669666;-7942.508464055689;-7926.813053729019
0.007727471293882834;-5.7088295552323345;15.903135922810874;-7941.531441311854;-7925.628305389043
0.007828909163519603;-5.703983666795027;16.11189505852334;-7940.630442238991;-7924.518547180468
0.007930863003558261;-5.699236142423367;16.321716061322903;-7939.823228257668;-7923.501512196345
0.008033268008980786;-5.69435562301773;16.532465562482457;-7938.959613012401;-7922.427147449918
0.008136118393265293;-5.689537466427093;16.744131653339974;-7938.160945598323;-7921.416813944984
0.008239436824183977;-5.684736562594723;16.956760984170625;-7937.403358806121;-7920.4465978219505
0.008343194000961668;-5.679921277404206;17.17029325397911;-7936.655294935423;-7919.4850016814435
0.008447379441005202;-5.675245701200661;17.384706889588706;-7936.066124580953;-7918.681417691365
0.008551969743364154;-5.670323892322517;17.599953731843428;-7935.250752725499;-7917.650798993656
0.00865708560574414;-5.665417363905217;17.816282176621442;-7934.4594352421855;-7916.643153065564
0.008762712072410054;-5.66060317781929;18.03366144501989;-7933.776308203465;-7915.7426467584455
0.008868696177574804;-5.65581798136071;18.25177673344895;-7933.109486886729;-7914.85771015328
0.008975041470468766;-5.651111660722394;18.47063534622472;-7932.538648880001;-7914.068013533777
0.009081672682671923;-5.646351830808167;18.69008238093882;-7931.906949650374;-7913.216867269435
0.009188640842640563;-5.641773600735389;18.910222854154277;-7931.430337834723;-7912.520114980569
0.009295880375386076;-5.636888807374359;19.130921812544543;-7930.668991656974;-7911.53806984443
0.009403418352585784;-5.632103329727859;19.35223496962154;-7930.021558476332;-7910.6693235067105
0.009511288337463356;-5.627436561307876;19.574231398499585;-7929.444990364756;-7909.870758966257
0.009619273725876003;-5.622852913623381;19.796465327852815;-7928.942906471986;-7909.146441144133
0.009727354303664958;-5.61831876069874;20.018895156942484;-7928.480601695078;-7908.461706538135
0.009835551220499348;-5.613764190027525;20.241564411787657;-7927.996461454333;-7907.754897042546
0.009943800296523572;-5.609330293958516;20.464341010245512;-7927.60791255446;-7907.143571544215
0.010052080124693621;-5.604829448106886;20.687180896619473;-7927.118917017993;-7906.431736121373
0.010160365102781628;-5.60054154855555;20.91003138152459;-7926.8539821997765;-7905.943950818252
0.010268515824720806;-5.596272804813436;21.13260556727542;-7926.568398898275;-7905.435793330999
0.010376493461903016;-5.591919977556013;21.354823544596407;-7926.209008447475;-7904.854184902879
0.01048439130056801;-5.587719042260059;21.576877296568966;-7925.982129159355;-7904.405251862786
0.010592124997888691;-5.583464803026095;21.798593245654928;-7925.67785735862;-7903.879264112965
0.010699615790633802;-5.5793563865063085;22.019809297124365;-7925.491172230002;-7903.471362932878
0.010806910642263315;-5.575226541713689;22.2406221017779;-7925.29189892154;-7903.051276819762
0.010913975604811967;-5.571037536692818;22.460961794703028;-7925.045291104868;-7902.584329310165
0.011020822272677816;-5.566765234939542;22.680852237170946;-7924.701488827645;-7902.020636590474
0.011127486111782395;-5.562724531607629;22.90036641804817;-7924.581248680013;-7901.680882261965
0.011233787227935778;-5.558615824061125;23.119134115091832;-7924.3870501943675;-7901.267916079276
0.011339722106144473;-5.55449651960809;23.337148094445325;-7924.200764676048;-7900.863616581602
0.011445443935278968;-5.550458794415216;23.554723618804115;-7924.083886157702;-7900.529162538898
0.011550913224396804;-5.546388734643723;23.771779415808624;-7923.960626701231;-7900.1888472854225
0.011656058681931756;-5.542342847167535;23.988168767415555;-7923.846176537079;-7899.858007769664
0.011760891345077903;-5.538461290590664;24.203914388170325;-7923.903619762786;-7899.699705374615
0.011865384967967574;-5.534593177500809;24.418962264077265;-7923.995865327654;-7899.576903063577
0.011969571733829001;-5.5304514576812736;24.633378628220086;-7923.852360822601;-7899.218982194381
0.012073529369641602;-5.526417136186283;24.847323442722416;-7923.8346029583045;-7898.9872795155825
0.012177181813175939;-5.522271450463567;25.06064017151608;-7923.7207660940385;-7898.660125922523
0.012280660928083257;-5.518176198836088;25.273600189995342;-7923.6901314896695;-7898.416531299674
0.012383950077463025;-5.514061448876252;25.486169259418904;-7923.655547207554;-7898.169377948136
0.012486948572267769;-5.509802811787987;25.698140161727068;-7923.547080872324;-7897.848940710597
0.012589754170244013;-5.5057064033058545;25.90971408236218;-7923.6094140513715;-7897.699699969009
0.012692353882805096;-5.5014418044370546;26.12086429081289;-7923.563865122278;-7897.443000831465
0.01279485454398801;-5.497158909205123;26.331810651527327;-7923.525809790993;-7897.193999139466
0.01289724126715026;-5.493039665023243;26.542522527795235;-7923.676332733667;-7897.133810205872
0.012999439563254158;-5.488745777941263;26.752846621177056;-7923.71846472652;-7896.965618105343
0.013101590395811163;-5.484290850504838;26.963073034579374;-7923.658229088158;-7896.695156053578
0.013203714944044117;-5.479905675530061;27.17324535484279;-7923.690493468637;-7896.517248113794
0.013305802329825853;-5.475515099054251;27.383341194781607;-7923.785577577117;-7896.402236382335
0.013407959065257097;-5.470905761530157;27.593579756299107;-7923.716917004617;-7896.123337248318
0.01351012019112719;-5.466382137953265;27.803827353339752;-7923.7793129317015;-7895.975485578362
0.013612256444626835;-5.46198867102573;28.014023763042026;-7924.035098765697;-7896.0210750026545
0.013714445549218423;-5.457380957818702;28.224328940291514;-7924.099720135015;-7895.875391194723
0.013816738317531151;-5.452764384917408;28.43484745747911;-7924.235786067289;-7895.80093860981
0.013919072800687212;-5.448070904785549;28.645451823814284;-7924.349029897858;-7895.703578074043
0.01402145658606986;-5.443301333807724;28.85615765413177;-7924.435185396431;-7895.579027742299
0.014123978290051296;-5.438444485549239;29.067147320925567;-7924.532949378325;-7895.465802057399
0.014226628064129885;-5.433708597878022;29.278400555979307;-7924.76123934341;-7895.48283878743
0.014329516409994272;-5.428829014063878;29.49014477176821;-7924.925636326068;-7895.4354915543
0.01443263521013579;-5.4239063057335475;29.702363262459457;-7925.084464821024;-7895.3821015585645
0.014536011390103363;-5.4188699106661735;29.915111440832717;-7925.207470120329;-7895.292358679497
0.014639642561043869;-5.413720878383221;30.128384390628284;-7925.28690145404;-7895.158517063412
0.014743540972416444;-5.408679316807714;30.34220732123304;-7925.505210413114;-7895.1630030918805
0.014847767056074337;-5.403608718895832;30.556704601400988;-7925.761266289595;-7895.204561688194
0.014952134215830927;-5.398400070033086;30.77149221618005;-7925.9498751385;-7895.1783829223195
0.015056695851125394;-5.393376778507405;30.98668006161606;-7926.315827864482;-7895.329147802866
0.01516151974682544;-5.388219776677706;31.202407638966758;-7926.645802705816;-7895.443395066849
0.015266579172896717;-5.382968246529582;31.41861993782144;-7926.938444074649;-7895.519824136827
0.015371919492735598;-5.3775136980474585;31.63541031604986;-7927.075842135579;-7895.440431819528
0.01547744684150505;-5.37238715403425;31.852585599817395;-7927.566037143015;-7895.713451543197
0.01558316953628662;-5.367038267098067;32.07016290567786;-7927.9121083072805;-7895.841945401603
0.015689056098881063;-5.361624878705524;32.28807745149722;-7928.237380534016;-7895.949303082519
0.015795107308986485;-5.356221690283458;32.50633084189418;-7928.606278095903;-7896.099947254009
0.015901434407187776;-5.3506113203055765;32.72515200999244;-7928.851682199982;-7896.126530189989
0.016008012505772388;-5.344942605625186;32.944489736879575;-7929.054189305438;-7896.109699568558
0.016114850818683763;-5.339483037533222;33.16436298485118;-7929.526717712679;-7896.362354727828
0.016221740548647008;-5.33376799092572;33.384342049115546;-7929.774905003236;-7896.3905629541205
0.016328716306949966;-5.328294899245065;33.60449815970303;-7930.300257008285;-7896.695758848582
0.0164357535237007;-5.3225804734953135;33.82478075177604;-7930.649734787372;-7896.8249540355955
0.016542762444971024;-5.316976781447637;34.04500511175036;-7931.1548790305515;-7897.109873918801
0.01664986095611179;-5.3114887190724565;34.26541384767806;-7931.766010385088;-7897.500596537409
0.016756926025600118;-5.305766134799774;34.48575376068504;-7932.253917299912;-7897.768163539227
0.016863928670992193;-5.300042067358475;34.705965204901936;-7932.763172079925;-7898.057206875023
0.016970968818039788;-5.294329770490938;34.92625382752588;-7933.287249811478;-7898.360995983952
0.0170780706307297;-5.288589194003408;35.14666935804172;-7933.878611772769;-7898.731942414727
0.01718504886843231;-5.28289270292401;35.3668305712337;-7934.5257159566645;-7899.158885385431
0.017291977677460907;-5.277012687306599;35.58689006021454;-7935.066788837672;-7899.4798987774575
0.017398792570606357;-5.271003710028657;35.806715110307884;-7935.526546328379;-7899.719831218071
0.01750538548613681;-5.265118017372501;36.026083330469554;-7936.123894110045;-7900.097810779575
0.017611906405091592;-5.259147957328895;36.2453033816785;-7936.710510792122;-7900.465207410443
0.017718348270886117;-5.253237564550711;36.46436074148363;-7937.3762297012245;-7900.911868959741
0.017824609234943747;-5.2472690664824695;36.683045805514226;-7938.055664849867;-7901.372619044352
0.01793058200845903;-5.241223815067319;36.90113777340868;-7938.696790937807;-7901.795653164399
0.01803640913737803;-5.2351988708174355;37.11893000472398;-7939.440158312122;-7902.321228307398
0.018142072927203216;-5.229175378224401;37.33638608418421;-7940.191902051817;-7902.8555159676325
0.0182474988653673;-5.22307438095626;37.5533526649259;-7940.954450400446;-7903.40109773552
0.01835290454449397;-5.216709227845652;37.770277552568594;-7941.520187163504;-7903.749909610935
0.018458136960214214;-5.210553227416481;37.98684586412085;-7942.316166059628;-7904.329320195507
0.018563078201920075;-5.20423084538618;38.202814939551516;-7943.03259594483;-7904.829781005278
0.018667716214153963;-5.197891177716861;38.41815996872886;-7943.775258599642;-7905.357098630913
0.0187722497086572;-5.191438864754261;38.63328990041652;-7944.489277532217;-7905.8559876318
0.018876789381296468;-5.184978678107227;38.84843254670813;-7945.254387555458;-7906.40595500875
0.01898108026936362;-5.178469906534715;39.06306319435033;-7946.023197804858;-7906.960134610507
0.019085261685482885;-5.17194330456178;39.277468548723775;-7946.83388924541;-7907.5564206966865
0.019189287730670627;-5.165366977624029;39.49155414972015;-7947.656021350274;-7908.164467200554
0.019293056649387554;-5.158586272243452;39.70511058443958;-7948.390812040285;-7908.685701455845
0.019396835610604526;-5.15184810112905;39.91868768662411;-7949.198316658232;-7909.279628971608
0.01950058234686585;-5.145042296435612;40.13219846984992;-7950.021344364317;-7909.889145894467
0.01960445896187514;-5.138162631463507;40.34597654353904;-7950.827424285018;-7910.481447741479
0.019708444505808234;-5.1311268614941845;40.559978792953345;-7951.54403923296;-7910.984060440007
0.019812208324907248;-5.124121605694735;40.77352473265912;-7952.389973721402;-7911.616448988743
0.019915917680996695;-5.117006566172705;40.9869585874912;-7953.191465344749;-7912.204506757258
0.020019629928316938;-5.109853261530105;41.20039839247626;-7954.0179432066325;-7912.8175448141565
0.0201233877455713;-5.102656261292092;41.41393198038573;-7954.836254576897;-7913.422322596512
0.020227126357123346;-5.095447900597684;41.62742604295985;-7955.754375444711;-7914.126949401751
0.02033078457602777;-5.088199741301588;41.840754657465155;-7956.7102158308235;-7914.869461173358
0.02043450886996382;-5.080926005842121;42.05421925438554;-7957.667936583164;-7915.613717328779
0.02053839779007067;-5.073345547483671;42.26802265196544;-7958.444580887938;-7916.176558235973
0.020642383576412137;-5.06585422943456;42.48202540025618;-7959.333183955168;-7916.851158554912
0.02074648883432857;-5.058205134768496;42.6962740210482;-7960.138327491924;-7917.442053470876
0.02085092753548961;-5.050644247545969;42.91120886803762;-7961.1029613360315;-7918.191752467994
0.020955475131369847;-5.042932939677056;43.12636782035915;-7961.986714433884;-7918.860346613525
