temperature;pressure;system_kinetic_energy;potential_energy;total_energy;virial;msd;diffusion
0.0001000001;-2.939189;0.20580016;-7985.8057;-7985.6;-16209.442;3.9320667e-15;1.3106889e-13
0.00020000008;-2.9390855;0.4114916;-7985.076;-7984.6646;-16209.282;7.505602e-09;1.2509338e-07
0.00029993543;-2.939009;0.61694694;-7985.0796;-7984.4624;-16209.271;4.3713964e-08;4.857107e-07
0.00039982036;-2.9389327;0.8221947;-7985.0767;-7984.2544;-16209.261;1.2887226e-07;1.0739356e-06
0.0004996548;-2.9388502;1.0272366;-7985.084;-7984.0566;-16209.216;2.8304024e-07;1.8869348e-06
0.0005994393;-2.9387653;1.2320749;-7985.08;-7983.848;-16209.158;5.2620356e-07;2.9233531e-06
0.0006991751;-2.9386756;1.4367111;-7985.0703;-7983.634;-16209.073;8.782706e-07;4.182241e-06
0.0007988613;-2.938578;1.6411428;-7985.0596;-7983.4185;-16208.943;1.3591084e-06;5.6629515e-06
0.00089849747;-2.938477;1.8453715;-7985.0654;-7983.22;-16208.794;1.9885258e-06;7.3649103e-06
0.000998085;-2.9383664;2.0493987;-7985.058;-7983.009;-16208.593;2.7862814e-06;9.287604e-06
0.0010976233;-2.9382474;2.2532253;-7985.042;-7982.7886;-16208.345;3.7721215e-06;1.1430671e-05
0.0011971131;-2.938121;2.456853;-7985.0273;-7982.5703;-16208.055;4.9657124e-06;1.3793645e-05
0.0012965546;-2.9379835;2.6602798;-7985.022;-7982.362;-16207.703;6.386731e-06;1.6376234e-05
0.0013959466;-2.937836;2.8635056;-7985.01;-7982.1465;-16207.296;8.054737e-06;1.9177945e-05
0.0014952907;-2.937674;3.0665345;-7984.9937;-7981.9272;-16206.809;9.989362e-06;2.2198583e-05
0.0015945865;-2.9374998;3.2693667;-7984.9575;-7981.688;-16206.254;1.2210111e-05;2.5437732e-05
0.0016938347;-2.937313;3.4720006;-7984.9214;-7981.449;-16205.63;1.4736545e-05;2.8895187e-05
0.0017930341;-2.9371116;3.6744356;-7984.9043;-7981.23;-16204.922;1.7588034e-05;3.257043e-05
0.0018921858;-2.936894;3.8766778;-7984.8643;-7980.988;-16204.126;2.0784011e-05;3.6463178e-05
0.0019912913;-2.9366615;4.078723;-7984.839;-7980.7603;-16203.248;2.4343897e-05;4.0573163e-05
0.0020903463;-2.9364114;4.280569;-7984.8027;-7980.522;-16202.274;2.8286982e-05;4.489997e-05
0.0021893557;-2.9361424;4.4822264;-7984.758;-7980.2754;-16201.193;3.2632564e-05;4.9443282e-05
0.0022883187;-2.9358559;4.68369;-7984.708;-7980.0244;-16200.017;3.7400056e-05;5.420298e-05
0.002387233;-2.935548;4.884957;-7984.6504;-7979.7656;-16198.721;4.260855e-05;5.917854e-05
0.0024861007;-2.935222;5.0860333;-7984.5986;-7979.5127;-16197.325;4.8277194e-05;6.436959e-05
0.0025849226;-2.9348724;5.2869215;-7984.53;-7979.2427;-16195.799;5.4425145e-05;6.977583e-05
0.0026836975;-2.9345021;5.487615;-7984.466;-7978.978;-16194.158;6.107153e-05;7.539695e-05
0.002782425;-2.934107;5.688118;-7984.3857;-7978.6978;-16192.381;6.8235415e-05;8.123264e-05
0.0028811067;-2.9336908;5.8884315;-7984.317;-7978.428;-16190.485;7.593572e-05;8.728244e-05
0.0029797433;-2.9332047;6.088689;-7984.1533;-7978.0645;-16188.205;8.419136e-05;9.354595e-05
0.0030783978;-2.932711;6.288836;-7984.0083;-7977.719;-16185.882;9.3021496e-05;0.00010002311
0.0031769802;-2.932182;6.4887676;-7983.846;-7977.3574;-16183.366;0.00010244498;0.00010671352
0.0032755304;-2.9315991;6.6886044;-7983.6367;-7976.948;-16180.552;0.00011248047;0.00011361664
0.003374066;-2.9310155;6.8882494;-7983.465;-7976.5767;-16177.731;0.0001231469;0.00012073226
0.0034725228;-2.9303255;7.087843;-7983.1357;-7976.048;-16174.326;0.00013446284;0.00012805985
0.0035710349;-2.929632;7.2873955;-7982.8594;-7975.572;-16170.899;0.00014644722;0.00013559929
0.0036694722;-2.9288807;7.486759;-7982.5146;-7975.028;-16167.156;0.00015911856;0.00014335004
0.0037678913;-2.9280474;7.686121;-7982.081;-7974.395;-16162.959;0.00017249535;0.0001513117
0.00386633;-2.9271903;7.8854127;-7981.6313;-7973.746;-16158.631;0.00018659647;0.00015948416
0.003964715;-2.9262767;8.084557;-7981.164;-7973.0796;-16153.99;0.00020143985;0.00016786654
0.004063082;-2.9252934;8.283661;-7980.6084;-7972.3247;-16148.967;0.00021704414;0.00017645865
0.0041614487;-2.9242063;8.482831;-7979.9053;-7971.4224;-16143.369;0.00023342753;0.00018525995
0.004259847;-2.9231222;8.681893;-7979.2793;-7970.597;-16137.789;0.0002506085;0.00019427015
0.0043581626;-2.9219482;8.880826;-7978.5283;-7969.6475;-16131.713;0.00026860455;0.0002034883
0.004456499;-2.9206507;9.079888;-7977.6226;-7968.5425;-16124.955;0.00028743374;0.00021291387
0.004554879;-2.9193287;9.278952;-7976.71;-7967.431;-16118.0625;0.0003071141;0.00022254644
0.004653216;-2.91806;9.477703;-7975.9634;-7966.486;-16111.464;0.00032766332;0.00023238534
0.0047514453;-2.9167075;9.676235;-7975.133;-7965.4565;-16104.402;0.00034909815;0.00024242928
0.0048496746;-2.9152553;9.874827;-7974.1846;-7964.3096;-16096.79;0.00037143572;0.00025267736
0.0049479348;-2.913704;10.073522;-7973.1006;-7963.027;-16088.633;0.00039469296;0.00026312863
0.0050462172;-2.9120967;10.272259;-7971.9785;-7961.706;-16080.166;0.00041888692;0.00027378232
0.0051444992;-2.9106634;10.470619;-7971.247;-7960.7764;-16072.658;0.00044403435;0.0002846374
0.005242594;-2.9088848;10.669044;-7969.9443;-7959.2754;-16063.247;0.00047015026;0.000295692
0.0053409133;-2.9071155;10.86784;-7968.7227;-7957.855;-16053.887;0.0004972512;0.0003069452
0.005439191;-2.9054182;11.066367;-7967.693;-7956.6265;-16044.924;0.00052535336;0.00031839596
0.0055373805;-2.9036214;11.264812;-7966.5586;-7955.294;-16035.411;0.00055447075;0.0003300421
0.005635619;-2.901728;11.46348;-7965.3027;-7953.8394;-16025.366;0.0005846184;0.0003418821
0.005733921;-2.899958;11.662041;-7964.338;-7952.676;-16016.003;0.00061581115;0.00035391442
0.00583211;-2.8979301;11.860731;-7962.977;-7951.116;-16005.218;0.00064806157;0.0003661365
0.005930474;-2.896085;12.059513;-7962.008;-7949.948;-15995.439;0.0006813836;0.00037854645
0.0060287137;-2.8942215;12.258095;-7961.089;-7948.8306;-15985.56;0.0007157895;0.0003911418
0.0061269803;-2.8921506;12.45705;-7959.83;-7947.373;-15974.538;0.0007512908;0.0004039198
0.006225408;-2.8901317;12.656308;-7958.757;-7946.1006;-15963.802;0.0007878992;0.00041687788
0.0063238214;-2.888054;12.855692;-7957.633;-7944.7773;-15952.741;0.0008256252;0.00043001314
0.0064223153;-2.8860455;13.055256;-7956.6943;-7943.639;-15942.065;0.0008644788;0.00044332247
0.0065208217;-2.8838887;13.255161;-7955.55;-7942.2944;-15930.571;0.0009044685;0.00045680229
0.006619485;-2.8817604;13.4554825;-7954.531;-7941.075;-15919.234;0.0009456031;0.0004704493
0.006718199;-2.879522;13.656235;-7953.3594;-7939.703;-15907.292;0.0009878889;0.00048425928
0.0068170764;-2.877291;13.857508;-7952.2744;-7938.417;-15895.391;0.0010313329;0.0004982284
0.006916048;-2.8750634;14.059183;-7951.2397;-7937.1807;-15883.509;0.00107594;0.00051235233
0.0070151268;-2.8728166;14.26133;-7950.252;-7935.9907;-15871.522;0.0011217133;0.00052662595
0.0071143326;-2.8705297;14.464026;-7949.246;-7934.782;-15859.315;0.0011686555;0.0005410442
0.007213684;-2.8682532;14.667308;-7948.3066;-7933.639;-15847.169;0.0012167677;0.00055560167
0.007313179;-2.8659189;14.871296;-7947.314;-7932.443;-15834.703;0.0012660496;0.0005702926
0.0074128807;-2.8634975;15.076168;-7946.21;-7931.134;-15821.759;0.0013164999;0.0005851111
0.007512811;-2.8610785;15.281849;-7945.173;-7929.891;-15808.831;0.0013681159;0.0006000508
0.0076129124;-2.8586006;15.488319;-7944.0654;-7928.577;-15795.578;0.0014208923;0.0006151049
0.0077132294;-2.856257;15.695411;-7943.257;-7927.5615;-15783.068;0.0014748231;0.00063026627
0.007813637;-2.8539288;15.9031315;-7942.51;-7926.6064;-15770.644;0.0015299004;0.0006455276
0.007914266;-2.8514643;16.111883;-7941.548;-7925.436;-15757.471;0.0015861135;0.00066088064
0.008015177;-2.8489857;16.32171;-7940.615;-7924.2935;-15744.221;0.001643452;0.00067631766
0.008116337;-2.8465827;16.532463;-7939.826;-7923.294;-15731.39;0.0017019031;0.00069183053
0.008217702;-2.844103;16.74413;-7938.959;-7922.215;-15718.139;0.0017614524;0.0007074106
0.008319302;-2.8416557;16.95676;-7938.1606;-7921.204;-15705.068;0.001822083;0.0007230488
0.008421143;-2.8392155;17.170296;-7937.404;-7920.2334;-15692.038;0.0018837765;0.0007387359
0.008523182;-2.8367693;17.384708;-7936.655;-7919.27;-15678.977;0.0019465142;0.0007544629
0.008625451;-2.8343928;17.599958;-7936.0635;-7918.4634;-15666.301;0.002010275;0.00077022024
0.008727894;-2.8318915;17.816282;-7935.2485;-7917.432;-15652.938;0.0020750356;0.00078599836
0.008830687;-2.8293998;18.033657;-7934.461;-7916.4272;-15639.633;0.0021407737;0.0008017879
0.008933637;-2.8269532;18.25177;-7933.777;-7915.525;-15626.576;0.0022074634;0.00081757904
0.009036788;-2.8245199;18.470627;-7933.1143;-7914.6436;-15613.595;0.0022750793;0.00083336234
0.009140095;-2.8221264;18.690075;-7932.5376;-7913.8477;-15600.834;0.0023435943;0.0008491284
0.009243528;-2.8197067;18.910225;-7931.9053;-7912.995;-15587.93;0.002412981;0.0008648677
0.009347169;-2.8173783;19.130922;-7931.4263;-7912.2954;-15575.53;0.0024832117;0.00088057155
0.009450865;-2.8148952;19.352238;-7930.669;-7911.317;-15562.279;0.0025542579;0.0008962308
0.009554799;-2.8124623;19.574226;-7930.0215;-7910.4473;-15549.307;0.0026260917;0.0009118374
0.009658819;-2.810087;19.796465;-7929.443;-7909.6465;-15536.652;0.002698686;0.0009273835
0.009762864;-2.8077555;20.018902;-7928.9434;-7908.9243;-15524.239;0.0027720125;0.0009428614
0.009866973;-2.805447;20.241566;-7928.4824;-7908.2407;-15511.954;0.002846044;0.00095826393
0.00997112;-2.803131;20.464342;-7927.997;-7907.5327;-15499.627;0.0029207545;0.0009735848
0.010075278;-2.8008742;20.68718;-7927.6045;-7906.9175;-15487.627;0.002996118;0.0009888178
0.010179449;-2.798583;20.910034;-7927.1187;-7906.2085;-15475.437;0.0030721114;0.0010039579
0.010283602;-2.7963972;21.13261;-7926.8555;-7905.7227;-15463.828;0.0031487101;0.0010190001
0.01038763;-2.7942235;21.354822;-7926.5703;-7905.2153;-15452.285;0.0032258937;0.0010339404
0.010491598;-2.7920086;21.576874;-7926.211;-7904.6343;-15440.515;0.0033036429;0.0010487755
0.010595546;-2.7898645;21.7986;-7925.9795;-7904.1807;-15429.134;0.0033819398;0.0010635031
0.010699346;-2.7876968;22.01981;-7925.676;-7903.656;-15417.622;0.003460768;0.0010781209
0.010803043;-2.785604;22.240623;-7925.492;-7903.2515;-15406.5205;0.003540114;0.0010926278
0.010906642;-2.7834978;22.460964;-7925.2856;-7902.8247;-15395.348;0.0036199663;0.0011070233
0.011010104;-2.7813754;22.680847;-7925.0654;-7902.385;-15384.082;0.003700314;0.0011213073
0.011113479;-2.7791917;22.900362;-7924.702;-7901.802;-15372.479;0.0037811513;0.0011354808
0.011216759;-2.7771285;23.119133;-7924.581;-7901.462;-15361.537;0.003862472;0.0011495453
0.01131977;-2.775027;23.337154;-7924.3696;-7901.0327;-15350.385;0.0039442717;0.001163502
0.011422682;-2.7729368;23.554731;-7924.2046;-7900.65;-15339.293;0.00402655;0.0011773538
0.01152548;-2.7708786;23.771786;-7924.0825;-7900.3105;-15328.376;0.0041093067;0.0011911034
0.011628133;-2.7688036;23.988182;-7923.959;-7899.9707;-15317.366;0.0041925446;0.0012047542
0.011730615;-2.7667437;24.20393;-7923.847;-7899.643;-15306.4375;0.0042762677;0.0012183099
0.01183295;-2.7647653;24.41897;-7923.901;-7899.482;-15295.957;0.004360482;0.0012317746
0.011935091;-2.7627885;24.633392;-7923.9893;-7899.356;-15285.484;0.0044451943;0.0012451524
0.012037125;-2.7606833;24.847332;-7923.8535;-7899.0063;-15274.303;0.004530414;0.0012584483
0.012139034;-2.7586167;25.060629;-7923.818;-7898.7573;-15263.331;0.0046161516;0.0012716671
0.012240759;-2.7565243;25.27361;-7923.7373;-7898.464;-15252.219;0.0047024186;0.0012848139
0.012342518;-2.7544286;25.486189;-7923.6934;-7898.207;-15241.087;0.0047892295;0.0012978942
0.012444047;-2.7523298;25.698135;-7923.659;-7897.961;-15229.937;0.004876598;0.0013109134
0.012545502;-2.7501628;25.909718;-7923.5454;-7897.6357;-15218.408;0.0049645384;0.0013238769
0.012646858;-2.7480788;26.120876;-7923.6055;-7897.4844;-15207.338;0.005053069;0.0013367907
0.012748109;-2.745919;26.331814;-7923.5815;-7897.2495;-15195.849;0.0051422054;0.0013496602
0.012849363;-2.7437286;26.54253;-7923.517;-7896.9746;-15184.19;0.005231966;0.001362491
0.012950508;-2.74163;26.75286;-7923.671;-7896.918;-15173.039;0.005322369;0.001375289
0.013051577;-2.7394447;26.963074;-7923.7188;-7896.756;-15161.408;0.0054134317;0.0013880593
0.013152672;-2.737182;27.173243;-7923.661;-7896.488;-15149.349;0.005505174;0.0014008076
0.013253721;-2.7349477;27.383345;-7923.6924;-7896.309;-15137.447;0.005597614;0.0014135389
0.013354787;-2.7327156;27.593586;-7923.783;-7896.1895;-15125.56;0.0056907735;0.001426259
0.013455907;-2.730376;27.803822;-7923.7163;-7895.9126;-15113.076;0.0057846694;0.0014389724
0.013556972;-2.7280698;28.014011;-7923.779;-7895.7646;-15100.779;0.0058793207;0.0014516842
0.013658076;-2.7258391;28.224323;-7924.031;-7895.8066;-15088.898;0.0059747472;0.0014643988
0.013759203;-2.723494;28.434845;-7924.1016;-7895.6665;-15076.387;0.0060709664;0.0014771208
0.013860409;-2.721148;28.645445;-7924.2334;-7895.588;-15063.869;0.006167997;0.0014898544
0.013961582;-2.718763;28.85616;-7924.3486;-7895.4927;-15051.139;0.006265859;0.0015026041
0.014062842;-2.716334;29.067165;-7924.417;-7895.3496;-15038.165;0.006364568;0.0015153734
0.01416416;-2.7138755;29.278416;-7924.5293;-7895.251;-15025.029;0.0064641424;0.001528166
0.014265539;-2.7114685;29.490135;-7924.7646;-7895.2744;-15012.178;0.0065646;0.0015409859
0.014367093;-2.7089882;29.702345;-7924.926;-7895.2236;-14998.925;0.0066659553;0.0015538358
0.014468707;-2.7064881;29.915089;-7925.0845;-7895.1694;-14985.5625;0.0067682266;0.0015667191
0.014570525;-2.703922;30.128395;-7925.1865;-7895.058;-14971.838;0.006871428;0.0015796386
0.014672407;-2.7013202;30.342209;-7925.291;-7894.9487;-14957.917;0.006975576;0.0015925972
0.014774478;-2.6987627;30.556692;-7925.509;-7894.952;-14944.241;0.007080683;0.001605597
0.014876687;-2.696194;30.771458;-7925.7793;-7895.008;-14930.504;0.0071867616;0.00161864
0.014978888;-2.6935406;30.986637;-7925.9453;-7894.9585;-14916.303;0.0072938264;0.0016317285
0.0150812995;-2.6909926;31.202414;-7926.3174;-7895.1147;-14902.682;0.0074018906;0.0016448646
0.015183791;-2.6883795;31.418625;-7926.6616;-7895.243;-14888.705;0.007510963;0.0016580493
0.015286409;-2.6857078;31.635391;-7926.9395;-7895.304;-14874.403;0.0076210573;0.0016712846
0.015389172;-2.6829405;31.852592;-7927.076;-7895.2236;-14859.577;0.0077321865;0.0016845722
0.015491998;-2.6803372;32.07017;-7927.563;-7895.4927;-14845.655;0.00784436;0.0016979134
0.015594944;-2.6776223;32.28807;-7927.911;-7895.623;-14831.119;0.007957589;0.0017113095
0.01569792;-2.6748765;32.50632;-7928.2334;-7895.727;-14816.413;0.0080718845;0.0017247617
0.015801035;-2.6721358;32.725136;-7928.6064;-7895.8813;-14801.736;0.00818726;0.0017382716
0.015904285;-2.6692896;32.944473;-7928.85;-7895.906;-14786.4795;0.008303723;0.0017518405
0.016007649;-2.6664164;33.16436;-7929.0503;-7895.8857;-14771.074;0.008421288;0.0017654692
0.016111162;-2.6636486;33.38433;-7929.526;-7896.1416;-14756.25;0.008539965;0.0017791594
0.01621456;-2.6607485;33.60448;-7929.7734;-7896.169;-14740.697;0.008659764;0.0017929118
0.016318155;-2.6579697;33.824757;-7930.3027;-7896.478;-14725.8125;0.008780696;0.0018067276
0.016421612;-2.6550734;34.044968;-7930.649;-7896.604;-14710.281;0.008902776;0.0018206086
0.016525174;-2.6522338;34.265404;-7931.154;-7896.888;-14695.062;0.009026013;0.0018345555
0.016628735;-2.6494472;34.485764;-7931.76;-7897.274;-14680.135;0.009150423;0.0018485703
0.016732262;-2.6465478;34.705986;-7932.248;-7897.542;-14664.585;0.009276017;0.001862654
0.016835742;-2.6436489;34.926258;-7932.7676;-7897.8413;-14649.038;0.0094028115;0.0018768087
0.0169393;-2.6407502;35.146667;-7933.291;-7898.1445;-14633.494;0.00953082;0.0018910356
0.017042834;-2.637837;35.366825;-7933.883;-7898.516;-14617.869;0.00966006;0.0019053372
0.017146274;-2.6349523;35.586895;-7934.527;-7898.94;-14602.401;0.009790545;0.0019197149
0.017249765;-2.6319697;35.80673;-7935.0654;-7899.259;-14586.392;0.009922298;0.001934171
0.017353082;-2.6289277;36.026085;-7935.529;-7899.503;-14570.054;0.010055333;0.0019487081
0.017456342;-2.625944;36.245296;-7936.129;-7899.884;-14554.038;0.010189672;0.0019633279
0.017559588;-2.622918;36.464355;-7936.707;-7900.2427;-14537.788;0.010325335;0.0019780335
0.017662775;-2.61992;36.683037;-7937.379;-7900.696;-14521.692;0.010462341;0.0019928268
0.017765835;-2.6168983;36.90113;-7938.0557;-7901.1543;-14505.465;0.010600714;0.002007711
0.017868735;-2.6138296;37.118927;-7938.681;-7901.562;-14488.977;0.010740474;0.002022688
0.017971652;-2.6107876;37.3364;-7939.44;-7902.1035;-14472.636;0.0108816475;0.0020377617
0.018074395;-2.607734;37.553368;-7940.196;-7902.6426;-14456.2295;0.011024259;0.0020529346
0.018177066;-2.6046467;37.77029;-7940.96;-7903.1895;-14439.638;0.011168333;0.0020682097
0.018279789;-2.6014357;37.98689;-7941.54;-7903.553;-14422.363;0.011313894;0.00208359
0.018382303;-2.5983012;38.202843;-7942.3164;-7904.114;-14405.509;0.011460973;0.0020990793
0.018484714;-2.59511;38.418175;-7943.0337;-7904.6157;-14388.341;0.011609592;0.0021146797
0.018586932;-2.591899;38.633316;-7943.7773;-7905.144;-14371.0625;0.01175978;0.002130395
0.01868925;-2.588629;38.84842;-7944.4883;-7905.6396;-14353.459;0.01191157;0.002146229
0.018791454;-2.5853689;39.06304;-7945.2554;-7906.1924;-14335.91;0.012064987;0.0021621839
0.018893536;-2.5820746;39.277462;-7946.017;-7906.7397;-14318.172;0.012220063;0.0021782643
0.018995646;-2.5787706;39.49156;-7946.838;-7907.346;-14300.38;0.012376828;0.002194473
0.01909758;-2.575437;39.7051;-7947.66;-7907.955;-14282.423;0.01253531;0.002210813
0.019199416;-2.5720115;39.918663;-7948.3906;-7908.472;-14263.958;0.012695541;0.0022272877
0.019301364;-2.5686038;40.132156;-7949.174;-7909.0415;-14245.592;0.012857545;0.0022438997
0.01940317;-2.565176;40.3459;-7950.042;-7909.6963;-14227.116;0.013021358;0.0022606524
0.019505247;-2.561689;40.55994;-7950.826;-7910.266;-14208.313;0.013187007;0.0022775487
0.019607188;-2.5581286;40.773514;-7951.548;-7910.7744;-14189.106;0.013354524;0.0022945916
0.019709043;-2.554592;40.98694;-7952.388;-7911.4014;-14170.029;0.0135239335;0.0023117834
0.019810922;-2.5509982;41.200336;-7953.212;-7912.0117;-14150.639;0.013695266;0.002329127
0.019912763;-2.5473757;41.41385;-7954.0127;-7912.5986;-14131.087;0.013868543;0.0023466232
0.020014701;-2.5437298;41.627415;-7954.823;-7913.196;-14111.408;0.014043799;0.0023642757
0.020116568;-2.5400968;41.840744;-7955.758;-7913.917;-14091.799;0.014221054;0.0023820861
0.020218397;-2.5364327;42.05417;-7956.712;-7914.6577;-14072.02;0.014400333;0.0024000555
0.020320307;-2.532755;42.267986;-7957.6646;-7915.3965;-14052.164;0.0145816635;0.0024181863
0.020422326;-2.5289283;42.482002;-7958.4385;-7915.9565;-14031.489;0.01476507;0.00243648
0.020524332;-2.5251427;42.696266;-7959.3276;-7916.6313;-14011.041;0.014950572;0.002454938
0.020626474;-2.5212784;42.911144;-7960.1416;-7917.2305;-13990.16;0.015138195;0.0024735613
0.020728782;-2.517457;43.126305;-7961.0947;-7917.9683;-13969.516;0.015327965;0.0024923522
0.020831054;-2.5135615;43.341286;-7961.9873;-7918.646;-13948.464;0.015519904;0.0025113113
0.020933276;-2.5097272;43.55642;-7963.0264;-7919.4697;-13927.749;0.015714023;0.0025304384
0.021035615;-2.5058746;43.772064;-7964.13;-7920.358;-13906.935;0.015910344;0.0025497347
0.021138083;-2.5019248;43.987843;-7965.074;-7921.0864;-13885.583;0.01610889;0.002569201
0.021240484;-2.4978821;44.203964;-7965.9233;-7921.719;-13863.721;0.016309675;0.0025888372
0.021343118;-2.4938982;44.420433;-7966.9062;-7922.486;-13842.183;0.01651272;0.0026086445
0.021445679;-2.489889;44.63675;-7967.927;-7923.29;-13820.505;0.016718041;0.0026286228
0.021548236;-2.4858057;44.85303;-7968.8594;-7924.0063;-13798.42;0.016925657;0.0026487727
0.021650784;-2.4817483;45.069008;-7969.917;-7924.848;-13776.476;0.017135585;0.0026690941
0.021753183;-2.4776368;45.284966;-7970.8975;-7925.6123;-13754.234;0.017347837;0.002689587
0.021855716;-2.4735458;45.50081;-7971.92;-7926.419;-13732.104;0.01756243;0.0027102516
0.021958057;-2.4694293;45.716503;-7973.0146;-7927.2983;-13709.834;0.017779384;0.002731088
0.022060513;-2.4652677;45.931946;-7974.0703;-7928.138;-13687.313;0.017998714;0.002752097
0.02216274;-2.461113;46.14721;-7975.181;-7929.034;-13664.832;0.01822044;0.0027732786
0.0222651;-2.4568758;46.362144;-7976.1885;-7929.826;-13641.8955;0.018444575;0.0027946327
